!Trace Data File
!Measurement: Smith Chart
!Data Points: 4000
#Freq/Hz  Real  Image
1000000  1.099877238  -0.171691433  
2000000  1.087571979  -0.248888314  
3000000  1.063088536  -0.331103355  
4000000  1.031613231  -0.415264606  
5000000  0.991965055  -0.498303801  
6000000  0.947175980  -0.579756439  
7000000  0.894283295  -0.657162130  
8000000  0.834803164  -0.730623782  
9000000  0.768965721  -0.799144208  
10000000  0.696868539  -0.862284660  
11000000  0.619510174  -0.919196725  
12000000  0.537247956  -0.969410002  
13000000  0.450340360  -1.012280703  
14000000  0.359402955  -1.047979116  
15000000  0.265578687  -1.075130820  
16000000  0.169169143  -1.093982458  
17000000  0.071029022  -1.104342103  
18000000  -0.028179927  -1.105647087  
19000000  -0.127744555  -1.098162770  
20000000  -0.226712674  -1.081250906  
21000000  -0.323572934  -1.055437565  
22000000  -0.418328822  -1.020689487  
23000000  -0.509609103  -0.977079749  
24000000  -0.596707761  -0.925137520  
25000000  -0.678796113  -0.864973009  
26000000  -0.754581809  -0.797394395  
27000000  -0.823670626  -0.723305225  
28000000  -0.885419607  -0.643128037  
29000000  -0.939164281  -0.557630360  
30000000  -0.984703958  -0.468042403  
31000000  -1.021478415  -0.374472529  
32000000  -1.049567938  -0.278200179  
33000000  -1.068512678  -0.179866925  
34000000  -1.078479886  -0.080148928  
35000000  -1.079061985  0.019878682  
36000000  -1.070541620  0.119073085  
37000000  -1.052964807  0.216742128  
38000000  -1.026637316  0.311879992  
39000000  -0.991764367  0.403909504  
40000000  -0.949052393  0.492161125  
41000000  -0.898403764  0.575756729  
42000000  -0.840836346  0.654257655  
43000000  -0.776041389  0.727041423  
44000000  -0.705458224  0.793523073  
45000000  -0.629368186  0.852834165  
46000000  -0.548593104  0.904903650  
47000000  -0.463901848  0.949221730  
48000000  -0.376485109  0.985698044  
49000000  -0.286497921  1.013980031  
50000000  -0.195044547  1.034168243  
51000000  -0.102264546  1.046392441  
52000000  -0.009826234  1.050421476  
53000000  0.082723439  1.046311140  
54000000  0.174071968  1.034630656  
55000000  0.263718307  1.014733791  
56000000  0.350954175  0.987748682  
57000000  0.435411245  0.953595936  
58000000  0.516109526  0.912287176  
59000000  0.593301058  0.864533782  
60000000  0.665478528  0.810354114  
61000000  0.733161092  0.750717223  
62000000  0.795005322  0.685588002  
63000000  0.851629555  0.615476370  
64000000  0.901713729  0.540644109  
65000000  0.945658624  0.461956918  
66000000  0.982610822  0.379419744  
67000000  1.012645483  0.294063032  
68000000  1.035076499  0.206331089  
69000000  1.050066948  0.116937041  
70000000  1.057344913  0.026088210  
71000000  1.056833863  -0.065191478  
72000000  1.048158765  -0.156180725  
73000000  1.031978726  -0.245860338  
74000000  1.008017659  -0.333743393  
75000000  0.976628065  -0.419274479  
76000000  0.937957942  -0.502043188  
77000000  0.892308474  -0.581318915  
78000000  0.839576304  -0.656752706  
79000000  0.780639946  -0.727409184  
80000000  0.715267360  -0.793001056  
81000000  0.644417107  -0.852575541  
82000000  0.568219960  -0.906210780  
83000000  0.487211287  -0.952847064  
84000000  0.402216077  -0.992345810  
85000000  0.313627630  -1.024151444  
86000000  0.222329676  -1.048234820  
87000000  0.128711507  -1.063828230  
88000000  0.033759888  -1.070949316  
89000000  -0.061834466  -1.069650054  
90000000  -0.156694725  -1.059498429  
91000000  -0.250942945  -1.040531158  
92000000  -0.343061000  -1.012826800  
93000000  -0.432352006  -0.976917386  
94000000  -0.518219173  -0.932598293  
95000000  -0.599439204  -0.880655885  
96000000  -0.675677299  -0.821457922  
97000000  -0.745998859  -0.755483329  
98000000  -0.810106933  -0.682985008  
99000000  -0.867134750  -0.605047941  
100000000  -0.916687429  -0.522184312  
101000000  -0.958265781  -0.435670912  
102000000  -0.991492808  -0.345798701  
103000000  -1.016552210  -0.253426433  
104000000  -1.033110142  -0.158673197  
105000000  -1.040716767  -0.062786467  
106000000  -1.039548039  0.033350691  
107000000  -1.029472709  0.128450140  
108000000  -1.010801911  0.222282395  
109000000  -0.983655632  0.313524693  
110000000  -0.948265910  0.401910722  
111000000  -0.905370712  0.486342371  
112000000  -0.854834437  0.566446841  
113000000  -0.797252178  0.641206741  
114000000  -0.733520746  0.710514724  
115000000  -0.663878381  0.773189425  
116000000  -0.589437783  0.829257309  
117000000  -0.510461271  0.878140032  
118000000  -0.427924216  0.919549584  
119000000  -0.342141688  0.953091562  
120000000  -0.254808426  0.978932917  
121000000  -0.165377393  0.997027695  
122000000  -0.075439461  1.007252693  
123000000  0.014891258  1.009394169  
124000000  0.104877993  1.003802896  
125000000  0.193497047  0.990421653  
126000000  0.280562788  0.969558120  
127000000  0.365321428  0.941507399  
128000000  0.446846962  0.906121194  
129000000  0.525392890  0.864277124  
130000000  0.599541545  0.815619648  
131000000  0.669305146  0.760894001  
132000000  0.733956873  0.700265706  
133000000  0.793218374  0.634703934  
134000000  0.846436977  0.564552307  
135000000  0.893770993  0.490182281  
136000000  0.934426427  0.411506116  
137000000  0.968695641  0.329817235  
138000000  0.995732784  0.244592831  
139000000  1.015270710  0.157069474  
140000000  1.027038932  0.067768283  
141000000  1.030797482  -0.022028988  
142000000  1.026822925  -0.111674659  
143000000  1.015107274  -0.200237393  
144000000  0.996010959  -0.287492275  
145000000  0.969449461  -0.372863829  
146000000  0.935620129  -0.455800086  
147000000  0.894391954  -0.535396457  
148000000  0.846490681  -0.611691773  
149000000  0.791773915  -0.683683753  
150000000  0.730962217  -0.750541985  
151000000  0.663989007  -0.812236786  
152000000  0.592025936  -0.867843151  
153000000  0.515172601  -0.917036712  
154000000  0.434008539  -0.959428549  
155000000  0.349291980  -0.994173944  
156000000  0.261760116  -1.021719933  
157000000  0.171453774  -1.040956378  
158000000  0.079745337  -1.052045226  
159000000  -0.012751231  -1.054862142  
160000000  -0.105632804  -1.049175978  
161000000  -0.197400272  -1.035243869  
162000000  -0.287480086  -1.013214231  
163000000  -0.375474423  -0.982934892  
164000000  -0.460132986  -0.944695890  
165000000  -0.540881276  -0.898694158  
166000000  -0.617510736  -0.845734298  
167000000  -0.688489199  -0.785917401  
168000000  -0.753667533  -0.720222354  
169000000  -0.812416673  -0.649025857  
170000000  -0.864387870  -0.573154867  
171000000  -0.909318268  -0.493226856  
172000000  -0.946848035  -0.410037935  
173000000  -0.976657987  -0.324015617  
174000000  -0.998831809  -0.235738397  
175000000  -1.012989879  -0.145757049  
176000000  -1.019048810  -0.054976620  
177000000  -1.016820431  0.035783201  
178000000  -1.006745100  0.125711471  
179000000  -0.988880515  0.214484110  
180000000  -0.963179171  0.301100105  
181000000  -0.929824710  0.385163903  
182000000  -0.889207840  0.465850681  
183000000  -0.841571271  0.542329729  
184000000  -0.787404656  0.614257753  
185000000  -0.727453470  0.680626154  
186000000  -0.661836147  0.741479456  
187000000  -0.591603339  0.795787632  
188000000  -0.517249286  0.843799293  
189000000  -0.439195871  0.884949207  
190000000  -0.358257800  0.919121325  
191000000  -0.274846226  0.945988297  
192000000  -0.189775690  0.965791821  
193000000  -0.103299528  0.978098094  
194000000  -0.016185844  0.982823908  
195000000  0.070793696  0.979789972  
196000000  0.156937256  0.969408035  
197000000  0.241560534  0.951651990  
198000000  0.324209660  0.927160144  
199000000  0.404244274  0.895762384  
200000000  0.481438726  0.857891977  
201000000  0.555011630  0.813463926  
202000000  0.624832451  0.762925923  
203000000  0.690172136  0.706694603  
204000000  0.750614285  0.644541323  
205000000  0.805668235  0.577232182  
206000000  0.855010927  0.505248785  
207000000  0.897904336  0.428813130  
208000000  0.933859468  0.348600775  
209000000  0.962563932  0.265605211  
210000000  0.983990252  0.180354819  
211000000  0.997863352  0.093935438  
212000000  1.004334211  0.006887056  
213000000  1.003413200  -0.080123655  
214000000  0.995063305  -0.166699007  
215000000  0.979466558  -0.252233148  
216000000  0.956566036  -0.336239696  
217000000  0.926255703  -0.418169826  
218000000  0.888982534  -0.497403622  
219000000  0.844899654  -0.573207259  
220000000  0.794057250  -0.644932747  
221000000  0.737111568  -0.712227404  
222000000  0.673965573  -0.774497509  
223000000  0.605776727  -0.830788255  
224000000  0.532587230  -0.880946636  
225000000  0.454933614  -0.924492180  
226000000  0.373860270  -0.961244345  
227000000  0.289482713  -0.990598202  
228000000  0.202845335  -1.012374520  
229000000  0.114764981  -1.026206970  
230000000  0.025266455  -1.032521486  
231000000  -0.063992210  -1.030054808  
232000000  -0.152881637  -1.020033360  
233000000  -0.240383044  -1.001894236  
234000000  -0.325795680  -0.976180315  
235000000  -0.408273220  -0.943150342  
236000000  -0.487881660  -0.902930975  
237000000  -0.563170135  -0.856143832  
238000000  -0.633758664  -0.803127408  
239000000  -0.699381471  -0.744175494  
240000000  -0.759380877  -0.679675043  
241000000  -0.813678861  -0.610390842  
242000000  -0.861491024  -0.536345959  
243000000  -0.902748644  -0.458602160  
244000000  -0.936906874  -0.377552360  
245000000  -0.963651776  -0.293603301  
246000000  -0.982802093  -0.207978085  
247000000  -0.994458437  -0.120898567  
248000000  -0.998447120  -0.033648722  
249000000  -0.994925618  0.053475935  
250000000  -0.983770072  0.140172616  
251000000  -0.965027690  0.225063875  
252000000  -0.938935816  0.307956755  
253000000  -0.905426025  0.388424665  
254000000  -0.865297258  0.465396583  
255000000  -0.818817019  0.538527608  
256000000  -0.765911639  0.607256234  
257000000  -0.707545459  0.670844674  
258000000  -0.644109488  0.729372323  
259000000  -0.575344265  0.781803846  
260000000  -0.502787054  0.828060925  
261000000  -0.426139206  0.867804885  
262000000  -0.346824825  0.900640070  
263000000  -0.264842063  0.926538229  
264000000  -0.181236148  0.945322752  
265000000  -0.095842369  0.956695497  
266000000  -0.010490216  0.960913599  
267000000  0.075442031  0.957183242  
268000000  0.161195993  0.946528137  
269000000  0.245667145  0.928088546  
270000000  0.328437775  0.902597845  
271000000  0.408345073  0.869795680  
272000000  0.486478835  0.829267204  
273000000  0.560257614  0.782168329  
274000000  0.629707813  0.728805840  
275000000  0.694342792  0.669277549  
276000000  0.753323913  0.603782952  
277000000  0.806294799  0.533108056  
278000000  0.852493763  0.458121508  
279000000  0.891799569  0.379253566  
280000000  0.923851550  0.297311187  
281000000  0.948652387  0.213174164  
282000000  0.966037929  0.127354160  
283000000  0.975934207  0.040551580  
284000000  0.978205860  -0.046624836  
285000000  0.972733259  -0.133654550  
286000000  0.959471941  -0.219978288  
287000000  0.938633025  -0.304849207  
288000000  0.910196602  -0.387570351  
289000000  0.874420643  -0.467343360  
290000000  0.831901431  -0.543750763  
291000000  0.782428145  -0.615914524  
292000000  0.726854861  -0.683436513  
293000000  0.665386796  -0.746061325  
294000000  0.598597825  -0.802669704  
295000000  0.527145743  -0.852768838  
296000000  0.451259404  -0.896239042  
297000000  0.371923357  -0.933016658  
298000000  0.289643377  -0.962303221  
299000000  0.205071464  -0.984071553  
300000000  0.118813060  -0.997879207  
301000000  0.032537021  -1.004533887  
302000000  -0.054192267  -1.003097892  
303000000  -0.139926031  -0.994031072  
304000000  -0.224721029  -0.977583289  
305000000  -0.307001382  -0.953881085  
306000000  -0.386703819  -0.923469067  
307000000  -0.463207603  -0.886140645  
308000000  -0.536223114  -0.842689514  
309000000  -0.605031550  -0.793317258  
310000000  -0.669402242  -0.738271654  
311000000  -0.728664935  -0.677883387  
312000000  -0.782450974  -0.612633884  
313000000  -0.830220699  -0.543111145  
314000000  -0.871650398  -0.469911009  
315000000  -0.906687915  -0.393470556  
316000000  -0.934998631  -0.314491302  
317000000  -0.956525624  -0.233401224  
318000000  -0.971116960  -0.150995776  
319000000  -0.978664100  -0.067684993  
320000000  -0.978943765  0.016144639  
321000000  -0.971884906  0.099353030  
322000000  -0.957704961  0.181758046  
323000000  -0.936427176  0.262537360  
324000000  -0.908157587  0.341202915  
325000000  -0.873493135  0.417002380  
326000000  -0.832419515  0.489442438  
327000000  -0.785436273  0.558000147  
328000000  -0.733006120  0.621958077  
329000000  -0.675248265  0.681625187  
330000000  -0.612620413  0.735746324  
331000000  -0.545738101  0.784990728  
332000000  -0.474860609  0.828137219  
333000000  -0.400484592  0.865189254  
334000000  -0.323061287  0.895668745  
335000000  -0.243084729  0.919836402  
336000000  -0.161027968  0.936794281  
337000000  -0.077531397  0.946875036  
338000000  0.007174799  0.949542999  
339000000  0.091674089  0.944833219  
340000000  0.176050410  0.932894707  
341000000  0.259282023  0.912925124  
342000000  0.340796143  0.885884345  
343000000  0.419836819  0.851633608  
344000000  0.495856702  0.810074091  
345000000  0.567634583  0.761767149  
346000000  0.635422230  0.706889093  
347000000  0.697664320  0.645884454  
348000000  0.753980756  0.579309106  
349000000  0.804268539  0.507927477  
350000000  0.847789764  0.432489961  
351000000  0.884556949  0.353439093  
352000000  0.913997710  0.271578163  
353000000  0.935984731  0.187428266  
354000000  0.950391173  0.101757228  
355000000  0.957159698  0.015080995  
356000000  0.956072330  -0.071812645  
357000000  0.947255611  -0.158199564  
358000000  0.930529535  -0.243383452  
359000000  0.906068385  -0.326912493  
360000000  0.874173284  -0.407617539  
361000000  0.835088074  -0.485441893  
362000000  0.789027810  -0.559314370  
363000000  0.736425281  -0.628273487  
364000000  0.677730381  -0.692124546  
365000000  0.613359451  -0.750445902  
366000000  0.544261634  -0.802460313  
367000000  0.470781028  -0.847682118  
368000000  0.393646657  -0.886223912  
369000000  0.313748240  -0.917442083  
370000000  0.231525674  -0.941249788  
371000000  0.147701204  -0.957532108  
372000000  0.063061148  -0.966194153  
373000000  -0.021688042  -0.967588186  
374000000  -0.105810456  -0.961537838  
375000000  -0.188764662  -0.947835863  
376000000  -0.269680977  -0.927564263  
377000000  -0.349010646  -0.900279343  
378000000  -0.425256133  -0.866482437  
379000000  -0.497997493  -0.825968981  
380000000  -0.566955090  -0.779867887  
381000000  -0.631687522  -0.727443755  
382000000  -0.691521406  -0.669850409  
383000000  -0.745711684  -0.607308328  
384000000  -0.794363678  -0.540716112  
385000000  -0.837109864  -0.469917148  
386000000  -0.873329401  -0.395853639  
387000000  -0.902918220  -0.319161952  
388000000  -0.925803781  -0.240182847  
389000000  -0.941738605  -0.159491926  
390000000  -0.950480878  -0.077686913  
391000000  -0.952322185  0.004160562  
392000000  -0.946978688  0.085829541  
393000000  -0.934758842  0.166562915  
394000000  -0.915668786  0.245868102  
395000000  -0.889957607  0.323111415  
396000000  -0.857641935  0.397943646  
397000000  -0.819074035  0.469841540  
398000000  -0.774674296  0.538038313  
399000000  -0.724516273  0.602217495  
400000000  -0.668964326  0.661842406  
401000000  -0.608551383  0.716581464  
402000000  -0.543478191  0.765967607  
403000000  -0.474238366  0.809763491  
404000000  -0.401433051  0.847398698  
405000000  -0.325427711  0.878839314  
406000000  -0.246739164  0.903426588  
407000000  -0.166049898  0.920932412  
408000000  -0.084036537  0.931557178  
409000000  -0.001213884  0.934990346  
410000000  0.081557818  0.930706680  
411000000  0.164056197  0.919308484  
412000000  0.245611757  0.900717378  
413000000  0.324818999  0.874807715  
414000000  0.401753962  0.842022359  
415000000  0.475633651  0.802444160  
416000000  0.545602441  0.756397486  
417000000  0.611077905  0.704361260  
418000000  0.671910882  0.646740675  
419000000  0.727184951  0.583919168  
420000000  0.777072132  0.516628802  
421000000  0.820597351  0.445167542  
422000000  0.857891262  0.370122671  
423000000  0.888596475  0.292163968  
424000000  0.912217379  0.211843431  
425000000  0.928822398  0.129441589  
426000000  0.938111246  0.046062637  
427000000  0.939908504  -0.037899036  
428000000  0.934146702  -0.121809058  
429000000  0.920907319  -0.205087081  
430000000  0.900249124  -0.287154108  
431000000  0.871967494  -0.366508275  
432000000  0.836738706  -0.443198383  
433000000  0.794651031  -0.516536891  
434000000  0.746135473  -0.585511506  
435000000  0.691511273  -0.649620831  
436000000  0.631392300  -0.708322644  
437000000  0.566488206  -0.761583328  
438000000  0.497164428  -0.808732331  
439000000  0.424046159  -0.849334002  
440000000  0.347977906  -0.883117557  
441000000  0.269383013  -0.910173118  
442000000  0.188805550  -0.930102646  
443000000  0.106846094  -0.942909479  
444000000  0.024223911  -0.948615015  
445000000  -0.057661988  -0.946879804  
446000000  -0.139638275  -0.938055933  
447000000  -0.220312685  -0.922274888  
448000000  -0.299319386  -0.899445713  
449000000  -0.376045108  -0.869765222  
450000000  -0.449636608  -0.833481193  
451000000  -0.519629240  -0.791077971  
452000000  -0.585673034  -0.742789686  
453000000  -0.647003472  -0.688949764  
454000000  -0.703526139  -0.629879117  
455000000  -0.754396558  -0.566238284  
456000000  -0.799549758  -0.498867542  
457000000  -0.838618994  -0.427551329  
458000000  -0.871342659  -0.353154153  
459000000  -0.897482812  -0.276553959  
460000000  -0.916751504  -0.197919652  
461000000  -0.929278791  -0.118016765  
462000000  -0.934778452  -0.037429001  
463000000  -0.933260441  0.043230422  
464000000  -0.924847305  0.123551212  
465000000  -0.909780025  0.202840284  
466000000  -0.887732089  0.280570328  
467000000  -0.859036505  0.356118202  
468000000  -0.823892415  0.428645015  
469000000  -0.782866240  0.497993082  
470000000  -0.736197233  0.563550413  
471000000  -0.683732986  0.624879658  
472000000  -0.626208901  0.681765378  
473000000  -0.564057350  0.733344495  
474000000  -0.497701675  0.779178679  
475000000  -0.427412719  0.819362164  
476000000  -0.353921294  0.853610992  
477000000  -0.277928710  0.881081283  
478000000  -0.199512213  0.901630521  
479000000  -0.119257331  0.915645182  
480000000  -0.037995502  0.922750890  
481000000  0.043729134  0.922394812  
482000000  0.125450328  0.915011644  
483000000  0.206381783  0.900252700  
484000000  0.285633981  0.878476024  
485000000  0.362823844  0.849641502  
486000000  0.437050104  0.813900650  
487000000  0.508142352  0.771576285  
488000000  0.574933290  0.723401546  
489000000  0.637592494  0.669358253  
490000000  0.695227861  0.610304713  
491000000  0.747356534  0.546090782  
492000000  0.793915629  0.477805465  
493000000  0.834420383  0.405546337  
494000000  0.868367672  0.329969972  
495000000  0.895539999  0.251526922  
496000000  0.915751100  0.171106547  
497000000  0.928660870  0.089207083  
498000000  0.934256256  0.006598732  
499000000  0.932521403  -0.076515280  
500000000  0.923364878  -0.159151718  
