!Trace Data File
!Measurement: Smith Chart
!Data Points: 4000
#Freq/Hz  Real  Image
1000000  1.072224736  -0.174273387  
2000000  1.059183478  -0.247741237  
3000000  1.034774780  -0.327025741  
4000000  1.003560066  -0.408364207  
5000000  0.966240466  -0.490051746  
6000000  0.920665801  -0.567751944  
7000000  0.868985236  -0.642729104  
8000000  0.810946107  -0.714090168  
9000000  0.746382833  -0.780670822  
10000000  0.676304340  -0.841918826  
11000000  0.600710928  -0.896733165  
12000000  0.520325661  -0.945179284  
13000000  0.435423672  -0.986771941  
14000000  0.346794635  -1.020842433  
15000000  0.255500793  -1.047038436  
16000000  0.161388293  -1.065059066  
17000000  0.065785222  -1.074773312  
18000000  -0.030543204  -1.075805187  
19000000  -0.127472088  -1.068029642  
20000000  -0.223292217  -1.051386714  
21000000  -0.318043023  -1.025842905  
22000000  -0.409999788  -0.991632700  
23000000  -0.498665810  -0.948914111  
24000000  -0.583074033  -0.897772551  
25000000  -0.662490070  -0.838935733  
26000000  -0.736135900  -0.773122549  
27000000  -0.803132772  -0.700623274  
28000000  -0.862925231  -0.622532845  
29000000  -0.914860368  -0.539180279  
30000000  -0.958792508  -0.451765031  
31000000  -0.994317472  -0.360757113  
32000000  -1.021254063  -0.266919404  
33000000  -1.039432883  -0.171098039  
34000000  -1.048791051  -0.074039139  
35000000  -1.049095750  0.023293868  
36000000  -1.040386796  0.119838402  
37000000  -1.023042321  0.214928359  
38000000  -0.997085631  0.307379842  
39000000  -0.962948561  0.396992981  
40000000  -0.920876801  0.482629418  
41000000  -0.871359169  0.564058006  
42000000  -0.814632833  0.640223086  
43000000  -0.751459897  0.710971713  
44000000  -0.682326436  0.775319934  
45000000  -0.608057797  0.833081543  
46000000  -0.529074371  0.883541107  
47000000  -0.446601719  0.926318347  
48000000  -0.360997826  0.961566091  
49000000  -0.273265779  0.988760769  
50000000  -0.183802500  1.008237839  
51000000  -0.093604192  1.019618511  
52000000  -0.002911540  1.023058653  
53000000  0.087047659  1.018704414  
54000000  0.176187217  1.006741881  
55000000  0.263452083  0.987229884  
56000000  0.348630667  0.960512459  
57000000  0.430741727  0.926329076  
58000000  0.509619951  0.885631561  
59000000  0.584249735  0.838591933  
60000000  0.654812336  0.785346210  
61000000  0.720332205  0.726766407  
62000000  0.780566812  0.662641764  
63000000  0.835100710  0.593728960  
64000000  0.883717418  0.520483971  
65000000  0.925978720  0.443134099  
66000000  0.961494029  0.362302035  
67000000  0.990178645  0.278686166  
68000000  1.011348486  0.192842290  
69000000  1.025364876  0.105353706  
70000000  1.031826615  0.016613193  
71000000  1.030410886  -0.072625682  
72000000  1.021418810  -0.161145970  
73000000  1.004702806  -0.248655871  
74000000  0.980632603  -0.334199071  
75000000  0.949220538  -0.417535514  
76000000  0.910634935  -0.498069167  
77000000  0.865228295  -0.575122893  
78000000  0.813256145  -0.648292243  
79000000  0.754904211  -0.716716588  
80000000  0.690546691  -0.779907942  
81000000  0.620541930  -0.837637961  
82000000  0.545596421  -0.889022171  
83000000  0.466142088  -0.934003830  
84000000  0.382656962  -0.971499503  
85000000  0.296104819  -1.001652837  
86000000  0.206431583  -1.024011135  
87000000  0.115083881  -1.038452268  
88000000  0.022268010  -1.044361591  
89000000  -0.070836775  -1.041839719  
90000000  -0.163757503  -1.030882597  
91000000  -0.255269766  -1.011208773  
92000000  -0.344722688  -0.983447075  
93000000  -0.431412756  -0.947319746  
94000000  -0.514731169  -0.902952552  
95000000  -0.593364477  -0.851364255  
96000000  -0.666936815  -0.792769432  
97000000  -0.734811664  -0.727652073  
98000000  -0.796415567  -0.656172931  
99000000  -0.851166606  -0.579580367  
100000000  -0.898551702  -0.498058349  
101000000  -0.937970638  -0.413251936  
102000000  -0.969322205  -0.325247109  
103000000  -0.992675960  -0.234774083  
104000000  -1.007564306  -0.142133683  
105000000  -1.013871312  -0.048509322  
106000000  -1.011494279  0.045137372  
107000000  -1.000558972  0.137903243  
108000000  -0.981209278  0.229062393  
109000000  -0.953634918  0.317763031  
110000000  -0.917963862  0.403416932  
111000000  -0.874978065  0.485291123  
112000000  -0.824691176  0.562841117  
113000000  -0.767486513  0.635212660  
114000000  -0.704640329  0.701680005  
115000000  -0.635763049  0.761942208  
116000000  -0.562315285  0.815748394  
117000000  -0.484733522  0.862188816  
118000000  -0.403591990  0.901621342  
119000000  -0.319851071  0.933185041  
120000000  -0.233781964  0.957398176  
121000000  -0.146628886  0.973737776  
122000000  -0.058621898  0.982556522  
123000000  0.029741621  0.983476818  
124000000  0.117496498  0.976786137  
125000000  0.203799710  0.962611020  
126000000  0.288538694  0.941053152  
127000000  0.370717764  0.912220478  
128000000  0.449937999  0.876589179  
129000000  0.525819957  0.834525406  
130000000  0.597742319  0.786098301  
131000000  0.664931297  0.731413484  
132000000  0.727260113  0.671489775  
133000000  0.784112573  0.606604815  
134000000  0.835312486  0.537139833  
135000000  0.880195141  0.463681549  
136000000  0.918695331  0.386400193  
137000000  0.950819254  0.305655539  
138000000  0.975914478  0.222142562  
139000000  0.993481994  0.136205867  
140000000  1.003509402  0.048815336  
141000000  1.005872488  -0.038894564  
142000000  1.000559926  -0.126085415  
143000000  0.987701535  -0.212499261  
144000000  0.967512131  -0.297396928  
145000000  0.940022349  -0.380312175  
146000000  0.905383229  -0.460756153  
147000000  0.863986135  -0.538009167  
148000000  0.815742195  -0.611447930  
149000000  0.761073649  -0.680918157  
150000000  0.700425625  -0.745305240  
151000000  0.634107292  -0.804299772  
152000000  0.562745452  -0.857357979  
153000000  0.486737400  -0.903878033  
154000000  0.406772196  -0.943683207  
155000000  0.323523641  -0.976065874  
156000000  0.237171575  -1.001378775  
157000000  0.148777246  -1.018464804  
158000000  0.059061810  -1.027606010  
159000000  -0.031323992  -1.028639793  
160000000  -0.121662185  -1.021488667  
161000000  -0.210844621  -1.006195664  
162000000  -0.298708558  -0.982704580  
163000000  -0.383837253  -0.951412678  
164000000  -0.465755284  -0.912352026  
165000000  -0.543612719  -0.865782797  
166000000  -0.616966724  -0.812755704  
167000000  -0.685263693  -0.753113449  
168000000  -0.747599363  -0.687805653  
169000000  -0.803474844  -0.617214978  
170000000  -0.852896214  -0.542313755  
171000000  -0.895098746  -0.463370889  
172000000  -0.929967225  -0.381452143  
173000000  -0.957409382  -0.296901762  
174000000  -0.977243423  -0.210180745  
175000000  -0.989185572  -0.122093648  
176000000  -0.993285120  -0.033422399  
177000000  -0.989442289  0.055068802  
178000000  -0.977804840  0.142789766  
179000000  -0.958399057  0.228882223  
180000000  -0.931526363  0.312822580  
181000000  -0.897219121  0.394278169  
182000000  -0.855693519  0.472120851  
183000000  -0.807728052  0.545809448  
184000000  -0.753436387  0.614743352  
185000000  -0.693516970  0.678481460  
186000000  -0.628300965  0.735891044  
187000000  -0.558682501  0.787838936  
188000000  -0.485028654  0.832962573  
189000000  -0.408149064  0.871258140  
190000000  -0.328500509  0.902877450  
191000000  -0.246430621  0.927471340  
192000000  -0.162941337  0.944890201  
193000000  -0.078021497  0.954864740  
194000000  0.007047770  0.957439721  
195000000  0.091771998  0.952628374  
196000000  0.175715387  0.940821230  
197000000  0.257776469  0.921796918  
198000000  0.338045448  0.895949006  
199000000  0.415473580  0.863522589  
200000000  0.489799440  0.824501097  
201000000  0.560968339  0.779846787  
202000000  0.627643347  0.728678524  
203000000  0.690261304  0.672175288  
204000000  0.747817218  0.610101163  
205000000  0.800152004  0.543238223  
206000000  0.846556187  0.471597672  
207000000  0.886604011  0.395999908  
208000000  0.919769168  0.316883624  
209000000  0.945875764  0.235032752  
210000000  0.964663446  0.151556030  
211000000  0.976169109  0.066891521  
212000000  0.980558395  -0.018164981  
213000000  0.977516770  -0.103064455  
214000000  0.967377901  -0.187224165  
215000000  0.950022638  -0.270355999  
216000000  0.925627470  -0.351854384  
217000000  0.894047916  -0.431263566  
218000000  0.855665863  -0.507634521  
219000000  0.810648501  -0.580571353  
220000000  0.759232700  -0.649469793  
221000000  0.701896191  -0.713862121  
222000000  0.638814390  -0.772785246  
223000000  0.570696890  -0.826099694  
224000000  0.498008013  -0.873375177  
225000000  0.421233803  -0.914136469  
226000000  0.341042310  -0.947744071  
227000000  0.258001894  -0.974222660  
228000000  0.172884867  -0.993229389  
229000000  0.086215146  -1.004312634  
230000000  -0.001156515  -1.007879019  
231000000  -0.088181749  -1.003446460  
232000000  -0.174439654  -0.991555393  
233000000  -0.259589344  -0.971379757  
234000000  -0.342155397  -0.944232583  
235000000  -0.422238111  -0.909998000  
236000000  -0.498376071  -0.868651927  
237000000  -0.570659935  -0.820951462  
238000000  -0.638304889  -0.767136872  
239000000  -0.700804770  -0.707935870  
240000000  -0.757798612  -0.643677235  
241000000  -0.809173405  -0.574495494  
242000000  -0.853834808  -0.501086354  
243000000  -0.891962647  -0.423931450  
244000000  -0.923067570  -0.343718737  
245000000  -0.946923435  -0.261128336  
246000000  -0.963438928  -0.176812097  
247000000  -0.972510815  -0.091737255  
248000000  -0.974071443  -0.006346000  
249000000  -0.968164265  0.078684740  
250000000  -0.954933047  0.162648544  
251000000  -0.934262156  0.245321006  
252000000  -0.906319857  0.325681210  
253000000  -0.871600091  0.403308868  
254000000  -0.830201030  0.477316946  
255000000  -0.782620549  0.547432244  
256000000  -0.729305267  0.613134027  
257000000  -0.670230865  0.673678637  
258000000  -0.606358051  0.728815258  
259000000  -0.537947714  0.778103709  
260000000  -0.465808123  0.821156323  
261000000  -0.389772326  0.857735038  
262000000  -0.311336279  0.887605309  
263000000  -0.230820730  0.910550833  
264000000  -0.148279637  0.926481307  
265000000  -0.064763114  0.934914052  
266000000  0.018823380  0.936324120  
267000000  0.103018947  0.930540144  
268000000  0.186184570  0.917461634  
269000000  0.268242419  0.896887362  
270000000  0.348257273  0.869292438  
271000000  0.425319582  0.834131062  
272000000  0.500449836  0.793046355  
273000000  0.570971012  0.744689345  
274000000  0.637253642  0.690426409  
275000000  0.698447049  0.629955232  
276000000  0.754038513  0.564321399  
277000000  0.803351402  0.493827224  
278000000  0.846170664  0.419183701  
279000000  0.881932437  0.341095150  
280000000  0.910691142  0.260385275  
281000000  0.932384968  0.177544519  
282000000  0.946741462  0.093265347  
283000000  0.953743339  0.008338789  
284000000  0.953269780  -0.076804139  
285000000  0.945160627  -0.161578938  
286000000  0.929559410  -0.245363846  
287000000  0.906520665  -0.327535242  
288000000  0.876228034  -0.407418936  
289000000  0.838923216  -0.484092712  
290000000  0.794882715  -0.557183206  
291000000  0.744417667  -0.626103878  
292000000  0.687928975  -0.690337837  
293000000  0.626187146  -0.749171913  
294000000  0.559220612  -0.802062452  
295000000  0.487597644  -0.848862529  
296000000  0.412322044  -0.889269888  
297000000  0.333763033  -0.922499597  
298000000  0.252595991  -0.948507667  
299000000  0.169382870  -0.967117548  
300000000  0.084928520  -0.978192449  
301000000  0.000488616  -0.981536388  
302000000  -0.083891958  -0.977087498  
303000000  -0.167375326  -0.965796113  
304000000  -0.249308765  -0.947370648  
305000000  -0.329005301  -0.921745658  
306000000  -0.405749619  -0.889213085  
307000000  -0.479532897  -0.850573778  
308000000  -0.549202859  -0.805885971  
309000000  -0.614932954  -0.755552769  
310000000  -0.675907373  -0.699846327  
311000000  -0.731925964  -0.639020979  
312000000  -0.782425523  -0.573555350  
313000000  -0.826790094  -0.504157543  
314000000  -0.864908636  -0.431275845  
315000000  -0.896840632  -0.355490923  
316000000  -0.922084928  -0.277565777  
317000000  -0.940557182  -0.197681636  
318000000  -0.952161252  -0.116604701  
319000000  -0.956762552  -0.034959134  
320000000  -0.954271734  0.046782792  
321000000  -0.944663286  0.128096014  
322000000  -0.927963138  0.208102062  
323000000  -0.904577672  0.286303967  
324000000  -0.874380767  0.362162083  
325000000  -0.837925911  0.435186714  
326000000  -0.795303822  0.504649460  
327000000  -0.747279406  0.569999337  
328000000  -0.693799019  0.630816519  
329000000  -0.635278702  0.687142551  
330000000  -0.572548211  0.737989664  
331000000  -0.505464315  0.783507228  
332000000  -0.434446096  0.823528469  
333000000  -0.360381246  0.857247829  
334000000  -0.283616066  0.884258509  
335000000  -0.204579160  0.904991746  
336000000  -0.123608448  0.918717265  
337000000  -0.041657940  0.925539136  
338000000  0.041133918  0.924938202  
339000000  0.123919718  0.917496204  
340000000  0.205791757  0.902582884  
341000000  0.286462188  0.880077541  
342000000  0.365152359  0.850673079  
343000000  0.441000313  0.814072371  
344000000  0.513575792  0.770584583  
345000000  0.582107961  0.720639348  
346000000  0.645894527  0.664399922  
347000000  0.704213381  0.602591455  
348000000  0.756857693  0.535604358  
349000000  0.803157687  0.464262009  
350000000  0.842782557  0.388922960  
351000000  0.875564158  0.310534835  
352000000  0.901102781  0.229559019  
353000000  0.919513524  0.146656215  
354000000  0.930413067  0.062632754  
355000000  0.933598280  -0.022123227  
356000000  0.929342389  -0.106786780  
357000000  0.917303860  -0.190666601  
358000000  0.897649825  -0.273276120  
359000000  0.870676041  -0.353700489  
360000000  0.836391211  -0.431105524  
361000000  0.795218170  -0.505351484  
362000000  0.747439742  -0.575467885  
363000000  0.693289697  -0.640769482  
364000000  0.633733690  -0.700757682  
365000000  0.568822086  -0.755109370  
366000000  0.499354899  -0.803035498  
367000000  0.426069647  -0.844305754  
368000000  0.349565864  -0.878613055  
369000000  0.270389080  -0.905858755  
370000000  0.189383611  -0.925977886  
371000000  0.107278831  -0.938636184  
372000000  0.024486277  -0.943958640  
373000000  -0.057918340  -0.941943169  
374000000  -0.139621332  -0.932742715  
375000000  -0.220065296  -0.916543722  
376000000  -0.298242748  -0.893485308  
377000000  -0.374303609  -0.864002645  
378000000  -0.447492361  -0.828124404  
379000000  -0.516927361  -0.786206186  
380000000  -0.582328856  -0.738158882  
381000000  -0.643476784  -0.684604824  
382000000  -0.699603319  -0.626151860  
383000000  -0.750149667  -0.563380480  
384000000  -0.794895351  -0.495989174  
385000000  -0.833564103  -0.425470412  
386000000  -0.866080761  -0.351929784  
387000000  -0.892017186  -0.275736213  
388000000  -0.911117494  -0.197735921  
389000000  -0.923420966  -0.118462883  
390000000  -0.928768992  -0.038619068  
391000000  -0.927164614  0.041463524  
392000000  -0.918772280  0.120948344  
393000000  -0.903586209  0.199244842  
394000000  -0.881835639  0.275737822  
395000000  -0.853528619  0.350170642  
396000000  -0.819274664  0.421980411  
397000000  -0.778620958  0.490523338  
398000000  -0.732535422  0.555309892  
399000000  -0.680821776  0.615933895  
400000000  -0.624299705  0.672023177  
401000000  -0.563001990  0.722842574  
402000000  -0.497377276  0.768366218  
403000000  -0.427702546  0.808067441  
404000000  -0.355081171  0.841824651  
405000000  -0.279568762  0.869202435  
406000000  -0.201623082  0.889861405  
407000000  -0.122086219  0.903662562  
408000000  -0.041346520  0.910382092  
409000000  0.039324906  0.909863770  
410000000  0.120152116  0.902198732  
411000000  0.200050741  0.887611747  
412000000  0.278505534  0.865872622  
413000000  0.354937822  0.837028086  
414000000  0.428502768  0.801758647  
415000000  0.498518050  0.759819627  
416000000  0.564835072  0.711740673  
417000000  0.626390934  0.658043027  
418000000  0.682787299  0.599178016  
419000000  0.734074533  0.535688102  
420000000  0.779542983  0.467639893  
421000000  0.818974018  0.396145999  
422000000  0.851887882  0.321364194  
423000000  0.878298581  0.243956894  
424000000  0.897820175  0.164534122  
425000000  0.910163224  0.083703659  
426000000  0.915288627  0.002047964  
427000000  0.913224101  -0.079923831  
428000000  0.903667808  -0.161333770  
429000000  0.886944890  -0.241873831  
430000000  0.862685502  -0.320597142  
431000000  0.831714392  -0.396778762  
432000000  0.793658733  -0.469718069  
433000000  0.749239683  -0.539023578  
434000000  0.698660791  -0.603753805  
435000000  0.642558038  -0.663530469  
436000000  0.581540823  -0.718031883  
437000000  0.515978396  -0.766759276  
438000000  0.446363449  -0.809182048  
439000000  0.373441696  -0.845450521  
440000000  0.297787488  -0.874580562  
441000000  0.219865680  -0.897357345  
442000000  0.140631855  -0.912986398  
443000000  0.060674500  -0.921530187  
444000000  -0.019621205  -0.923161268  
445000000  -0.099889822  -0.917674661  
446000000  -0.179047257  -0.905216277  
447000000  -0.257017761  -0.886220455  
448000000  -0.332680017  -0.860438466  
449000000  -0.405780554  -0.827850103  
450000000  -0.475349396  -0.789028287  
451000000  -0.541591227  -0.744357824  
452000000  -0.603472590  -0.694042683  
453000000  -0.660518706  -0.638759017  
454000000  -0.712568462  -0.578851521  
455000000  -0.759034693  -0.514574409  
456000000  -0.799634397  -0.446770459  
457000000  -0.834280670  -0.375542849  
458000000  -0.862543344  -0.301621348  
459000000  -0.884219646  -0.225778610  
460000000  -0.899144769  -0.148490161  
461000000  -0.907322347  -0.070081219  
462000000  -0.908716798  0.008551009  
463000000  -0.903377891  0.087015912  
464000000  -0.891351342  0.164870873  
465000000  -0.872522950  0.241126761  
466000000  -0.847319603  0.315548897  
467000000  -0.815686703  0.387557447  
468000000  -0.777848899  0.456571847  
469000000  -0.734520853  0.521905601  
470000000  -0.685567975  0.583539486  
471000000  -0.631503880  0.640454769  
472000000  -0.572574615  0.692691684  
473000000  -0.509491920  0.739810348  
474000000  -0.442275167  0.781180263  
475000000  -0.372065544  0.816557467  
476000000  -0.298702151  0.845861793  
477000000  -0.223167866  0.868701220  
478000000  -0.145839125  0.884927750  
479000000  -0.067177005  0.894140601  
480000000  0.012260432  0.896695733  
481000000  0.091657043  0.892116070  
482000000  0.170970395  0.880535066  
483000000  0.248645619  0.861706555  
484000000  0.324585736  0.836033344  
485000000  0.397701681  0.804037154  
486000000  0.468280405  0.765179217  
487000000  0.534807980  0.720235944  
488000000  0.597461700  0.669678330  
489000000  0.655178905  0.614212453  
490000000  0.707990587  0.553644896  
491000000  0.755188048  0.488613218  
492000000  0.796812296  0.419578433  
493000000  0.832023382  0.347185016  
494000000  0.860802770  0.272050411  
495000000  0.883060873  0.194411352  
496000000  0.898242891  0.115134932  
497000000  0.906124771  0.034875352  
498000000  0.906797171  -0.045792319  
499000000  0.900546193  -0.126189947  
500000000  0.887243092  -0.205869958  
