!Trace Data File
!Measurement: Smith Chart
!Data Points: 4000
#Freq/Hz  Real  Image
1000000  1.040874600  -0.174332932  
2000000  1.027895093  -0.244655937  
3000000  1.003786445  -0.320822805  
4000000  0.973210096  -0.399549961  
5000000  0.935155094  -0.477982759  
6000000  0.892100573  -0.553973377  
7000000  0.841463923  -0.626468241  
8000000  0.784791052  -0.695625186  
9000000  0.721970558  -0.759893835  
10000000  0.653570414  -0.818809569  
11000000  0.579904258  -0.872128725  
12000000  0.501690269  -0.918782353  
13000000  0.418927222  -0.958710968  
14000000  0.333032370  -0.991505623  
15000000  0.244100660  -1.016621470  
16000000  0.152834460  -1.033383608  
17000000  0.059944730  -1.042454362  
18000000  -0.033864807  -1.042883396  
19000000  -0.127661318  -1.034700513  
20000000  -0.220846698  -1.018258929  
21000000  -0.312312216  -0.992846787  
22000000  -0.401524305  -0.959017813  
23000000  -0.487316966  -0.917238414  
24000000  -0.568966150  -0.867228389  
25000000  -0.645673931  -0.809715271  
26000000  -0.716824949  -0.745531321  
27000000  -0.781403363  -0.674892783  
28000000  -0.838668823  -0.598660052  
29000000  -0.888759911  -0.517660618  
30000000  -0.930926859  -0.432479978  
31000000  -0.964852095  -0.344041497  
32000000  -0.990529656  -0.252863944  
33000000  -1.007649302  -0.159802064  
34000000  -1.015982747  -0.065557793  
35000000  -1.015814066  0.028869089  
36000000  -1.006792307  0.122515269  
37000000  -0.989360511  0.214529470  
38000000  -0.963559151  0.304236650  
39000000  -0.929833055  0.390892506  
40000000  -0.888717234  0.473834246  
41000000  -0.840050101  0.552629113  
42000000  -0.784712017  0.626220763  
43000000  -0.722812176  0.694474339  
44000000  -0.655125022  0.756587565  
45000000  -0.582739711  0.811934352  
46000000  -0.505723953  0.860596657  
47000000  -0.425255835  0.901551604  
48000000  -0.342093557  0.935041428  
49000000  -0.256488234  0.961085975  
50000000  -0.169410080  0.979365230  
51000000  -0.081678770  0.989579916  
52000000  0.006413434  0.992312312  
53000000  0.094021663  0.987421274  
54000000  0.180472597  0.974865675  
55000000  0.265303284  0.955159009  
56000000  0.347761810  0.928347647  
57000000  0.427364647  0.894578874  
58000000  0.503402889  0.854452014  
59000000  0.575958490  0.807847202  
60000000  0.643945634  0.755476534  
61000000  0.707080424  0.697688639  
62000000  0.765028715  0.634868741  
63000000  0.817524731  0.567107797  
64000000  0.863934636  0.495319128  
65000000  0.904227674  0.419781178  
66000000  0.938145995  0.340808809  
67000000  0.964957774  0.258886188  
68000000  0.984675527  0.175195962  
69000000  0.997304201  0.089970626  
70000000  1.002380371  0.003583666  
71000000  0.999996603  -0.083183341  
72000000  0.989995301  -0.169410661  
73000000  0.972685277  -0.254123211  
74000000  0.948193967  -0.336962551  
75000000  0.916488767  -0.417642623  
76000000  0.878046513  -0.495396346  
77000000  0.832874835  -0.569789827  
78000000  0.781049311  -0.640110612  
79000000  0.723377466  -0.705937564  
80000000  0.659828484  -0.766428649  
81000000  0.591139734  -0.821701705  
82000000  0.517581046  -0.870598972  
83000000  0.439640790  -0.912819207  
84000000  0.357749015  -0.948131740  
85000000  0.273079783  -0.976203740  
86000000  0.185892850  -0.996411264  
87000000  0.096830875  -1.009023070  
88000000  0.006492627  -1.013470888  
89000000  -0.083785310  -1.009342313  
90000000  -0.173869699  -0.997276545  
91000000  -0.262340754  -0.976517379  
92000000  -0.348930120  -0.947855294  
93000000  -0.432767332  -0.911588728  
94000000  -0.512620986  -0.867269993  
95000000  -0.588108361  -0.815951049  
96000000  -0.658531904  -0.757796109  
97000000  -0.723324418  -0.693275034  
98000000  -0.781873524  -0.622956276  
99000000  -0.833853066  -0.547552943  
100000000  -0.878299832  -0.467761844  
101000000  -0.915170133  -0.384827644  
102000000  -0.944258928  -0.299015790  
103000000  -0.965188801  -0.210491389  
104000000  -0.978039026  -0.120376378  
105000000  -0.982513547  -0.029321048  
106000000  -0.978666961  0.061398473  
107000000  -0.966157258  0.151299909  
108000000  -0.945760250  0.239375472  
109000000  -0.917411625  0.325006932  
110000000  -0.881401837  0.407664180  
111000000  -0.838052452  0.486135185  
112000000  -0.787706316  0.560294449  
113000000  -0.731300116  0.629389703  
114000000  -0.668657839  0.693012178  
115000000  -0.601263762  0.750351250  
116000000  -0.528805554  0.801106989  
117000000  -0.452550977  0.844830394  
118000000  -0.373099595  0.881611049  
119000000  -0.291081399  0.910833001  
120000000  -0.207236394  0.932599187  
121000000  -0.122268915  0.946822822  
122000000  -0.036326639  0.953552365  
123000000  0.049264334  0.952809632  
124000000  0.134458557  0.944815457  
125000000  0.217987716  0.928902686  
126000000  0.299970657  0.906576097  
127000000  0.379193962  0.876875281  
128000000  0.455535859  0.840699494  
129000000  0.528401852  0.798108578  
130000000  0.597185075  0.749638617  
131000000  0.661514103  0.695193946  
132000000  0.720886767  0.635531604  
133000000  0.774663389  0.571272969  
134000000  0.822807431  0.502752900  
135000000  0.865032792  0.430176198  
136000000  0.900938213  0.354247689  
137000000  0.930365443  0.274949521  
138000000  0.952788234  0.193180516  
139000000  0.968041122  0.109150313  
140000000  0.975726247  0.024215935  
141000000  0.975942969  -0.061123729  
142000000  0.968763351  -0.145738676  
143000000  0.954410136  -0.229410917  
144000000  0.932725489  -0.311411232  
145000000  0.904214859  -0.391443342  
146000000  0.868604481  -0.468737960  
147000000  0.826461554  -0.542920947  
148000000  0.777834058  -0.613382220  
149000000  0.722947478  -0.679430962  
150000000  0.662594259  -0.740594327  
151000000  0.596700013  -0.796185970  
152000000  0.525859773  -0.845897734  
153000000  0.450939089  -0.889291644  
154000000  0.372063607  -0.925864160  
155000000  0.290282398  -0.955500424  
156000000  0.205710575  -0.977665544  
157000000  0.119479939  -0.992056549  
158000000  0.031980399  -0.998794913  
159000000  -0.055792674  -0.997435749  
160000000  -0.143000096  -0.987748563  
161000000  -0.229641676  -0.970452905  
162000000  -0.313934177  -0.945462584  
163000000  -0.396018863  -0.912834227  
164000000  -0.474296749  -0.872814476  
165000000  -0.548826098  -0.825825691  
166000000  -0.618511736  -0.771884799  
167000000  -0.683182061  -0.712213635  
168000000  -0.741912067  -0.647093415  
169000000  -0.794222534  -0.577253461  
170000000  -0.840209901  -0.503079891  
171000000  -0.878950477  -0.425520629  
172000000  -0.910667956  -0.345028549  
173000000  -0.934924066  -0.262064308  
174000000  -0.951712847  -0.177356511  
175000000  -0.960885108  -0.091621168  
176000000  -0.962492168  -0.005453531  
177000000  -0.956222951  0.080381975  
178000000  -0.942193449  0.165388927  
179000000  -0.921255231  0.248325855  
180000000  -0.892666578  0.329148769  
181000000  -0.857079744  0.407090753  
182000000  -0.814523578  0.481408387  
183000000  -0.765814900  0.551560938  
184000000  -0.711221933  0.616770208  
185000000  -0.651205599  0.676846623  
186000000  -0.586143970  0.730913937  
187000000  -0.517164171  0.779030800  
188000000  -0.444441229  0.820715725  
189000000  -0.368750781  0.855849564  
190000000  -0.290406138  0.884113729  
191000000  -0.210135490  0.905644357  
192000000  -0.128380075  0.920228064  
193000000  -0.045889933  0.927326143  
194000000  0.036906652  0.927252650  
195000000  0.118902281  0.920098782  
196000000  0.200096905  0.905961037  
197000000  0.279342383  0.885045230  
198000000  0.356058002  0.857518435  
199000000  0.430573285  0.823560297  
200000000  0.501611114  0.783464611  
201000000  0.569374263  0.737695277  
202000000  0.632681966  0.685923100  
203000000  0.691794753  0.629096746  
204000000  0.745816469  0.566985667  
205000000  0.794444561  0.500277519  
206000000  0.837339163  0.429195017  
207000000  0.873633325  0.354521841  
208000000  0.903257608  0.276665062  
209000000  0.925885081  0.196508929  
210000000  0.941465437  0.114815235  
211000000  0.949956238  0.032378696  
212000000  0.951503754  -0.050259627  
213000000  0.945910215  -0.132456169  
214000000  0.933336556  -0.213966042  
215000000  0.913888752  -0.294261366  
216000000  0.887417376  -0.372542351  
217000000  0.854291201  -0.448612869  
218000000  0.814409018  -0.521572530  
219000000  0.768236995  -0.590996683  
220000000  0.715982556  -0.656169116  
221000000  0.657911062  -0.716661572  
222000000  0.594850838  -0.771998703  
223000000  0.526781082  -0.821339428  
224000000  0.454462439  -0.864914536  
225000000  0.378514051  -0.901670635  
226000000  0.299553931  -0.931653738  
227000000  0.217985213  -0.954519749  
228000000  0.134621263  -0.970000267  
229000000  0.050234109  -0.977817416  
230000000  -0.034691397  -0.978142202  
231000000  -0.119126536  -0.971032500  
232000000  -0.202659667  -0.956062794  
233000000  -0.284434944  -0.933991969  
234000000  -0.363762379  -0.904704809  
235000000  -0.440010637  -0.868491411  
236000000  -0.512694716  -0.826071620  
237000000  -0.581039250  -0.777163386  
238000000  -0.644943893  -0.722759128  
239000000  -0.703714132  -0.662967741  
240000000  -0.756752193  -0.598517179  
241000000  -0.804017782  -0.529199362  
242000000  -0.844942510  -0.456516832  
243000000  -0.879234374  -0.380037099  
244000000  -0.906719089  -0.301129699  
245000000  -0.926866293  -0.220000237  
246000000  -0.939937592  -0.137516424  
247000000  -0.945544243  -0.054553784  
248000000  -0.943853140  0.028447380  
249000000  -0.935166717  0.110853858  
250000000  -0.918976545  0.192103848  
251000000  -0.895885885  0.271539956  
252000000  -0.865711927  0.348592371  
253000000  -0.829119444  0.422609717  
254000000  -0.786199331  0.493009418  
255000000  -0.737387002  0.559348583  
256000000  -0.682963252  0.621089280  
257000000  -0.623545051  0.677562833  
258000000  -0.559310734  0.728955328  
259000000  -0.491222769  0.774120212  
260000000  -0.418977231  0.813328028  
261000000  -0.344218224  0.845688403  
262000000  -0.266802728  0.871709704  
263000000  -0.187518865  0.890914083  
264000000  -0.106775664  0.902914345  
265000000  -0.025299396  0.908375382  
266000000  0.056409523  0.906320155  
267000000  0.137756199  0.897518158  
268000000  0.217993125  0.881239951  
269000000  0.296888202  0.857918561  
270000000  0.373753250  0.827902138  
271000000  0.447138935  0.790019751  
272000000  0.518398702  0.747545660  
273000000  0.585149646  0.697845817  
274000000  0.647084594  0.642229855  
275000000  0.703980863  0.581161082  
276000000  0.755179286  0.515003800  
277000000  0.800186157  0.444568634  
278000000  0.838593960  0.370400041  
279000000  0.870232821  0.293124527  
280000000  0.894870043  0.213678464  
281000000  0.912405014  0.132597014  
282000000  0.922950029  0.050366037  
283000000  0.926213622  -0.032442980  
284000000  0.922112346  -0.115082458  
285000000  0.910830081  -0.196990848  
286000000  0.892211020  -0.277725190  
287000000  0.866283238  -0.356463104  
288000000  0.833603024  -0.432574600  
289000000  0.794092596  -0.505568981  
290000000  0.748315573  -0.574540436  
291000000  0.696579576  -0.639363527  
292000000  0.639097571  -0.699467421  
293000000  0.576592028  -0.753792524  
294000000  0.509457707  -0.802390933  
295000000  0.437992036  -0.844955742  
296000000  0.363338292  -0.880890846  
297000000  0.285347909  -0.909784615  
298000000  0.205599517  -0.931235969  
299000000  0.124285676  -0.945901752  
300000000  0.042085711  -0.953092635  
301000000  -0.040335722  -0.952765226  
302000000  -0.121719263  -0.945389986  
303000000  -0.202247679  -0.930548012  
304000000  -0.280854464  -0.909436285  
305000000  -0.357350022  -0.881064713  
306000000  -0.430519730  -0.846478999  
307000000  -0.500081003  -0.806064963  
308000000  -0.566095054  -0.759710908  
309000000  -0.627987802  -0.708140731  
310000000  -0.685061455  -0.651345193  
311000000  -0.736780465  -0.589951694  
312000000  -0.782962620  -0.524220824  
313000000  -0.823225856  -0.454786777  
314000000  -0.857258379  -0.382561237  
315000000  -0.884962201  -0.307555139  
316000000  -0.906154215  -0.230682611  
317000000  -0.920676172  -0.152305380  
318000000  -0.928449988  -0.072914653  
319000000  -0.929318607  0.006655850  
320000000  -0.923416674  0.086092278  
321000000  -0.910374045  0.164699689  
322000000  -0.890767813  0.241788968  
323000000  -0.864352047  0.316787988  
324000000  -0.831743538  0.389036745  
325000000  -0.793068051  0.458370060  
326000000  -0.748671114  0.523894727  
327000000  -0.698891401  0.585353911  
328000000  -0.644213200  0.642202437  
329000000  -0.584906995  0.694180191  
330000000  -0.521444082  0.741101027  
331000000  -0.454136789  0.782461107  
332000000  -0.383370101  0.817917049  
333000000  -0.309627444  0.847170055  
334000000  -0.233653888  0.870206833  
335000000  -0.155421361  0.886430264  
336000000  -0.076159023  0.896073282  
337000000  0.003969097  0.898749888  
338000000  0.084611058  0.894214272  
339000000  0.164717093  0.882712781  
340000000  0.243658811  0.864173114  
341000000  0.321075320  0.838233471  
342000000  0.395929545  0.805770695  
343000000  0.467841029  0.766427219  
344000000  0.536176264  0.720516801  
345000000  0.600158095  0.668796122  
346000000  0.659207523  0.610804081  
347000000  0.712770820  0.547866881  
348000000  0.760396421  0.480257064  
349000000  0.801707506  0.408788919  
350000000  0.836208880  0.333953738  
351000000  0.864212751  0.256168723  
352000000  0.884998858  0.176462784  
353000000  0.898664355  0.095073804  
354000000  0.904941916  0.013117467  
355000000  0.903782606  -0.069274910  
356000000  0.895257235  -0.151116222  
357000000  0.879186273  -0.231864199  
358000000  0.856036544  -0.310944110  
359000000  0.825667500  -0.387482077  
360000000  0.788460612  -0.460986644  
361000000  0.744554877  -0.530656159  
362000000  0.694462001  -0.596044064  
363000000  0.638632417  -0.656491339  
364000000  0.577675521  -0.711573482  
365000000  0.512210310  -0.760734022  
366000000  0.442489922  -0.803532720  
367000000  0.369619399  -0.839706063  
368000000  0.293468863  -0.869002104  
369000000  0.215686738  -0.891288936  
370000000  0.136157915  -0.906521738  
371000000  0.056257218  -0.914620697  
372000000  -0.024390008  -0.915594518  
373000000  -0.104119740  -0.909746110  
374000000  -0.182603538  -0.896423459  
375000000  -0.259513646  -0.876885831  
376000000  -0.334461302  -0.850616455  
377000000  -0.406628489  -0.818123043  
378000000  -0.475642920  -0.779559433  
379000000  -0.540911674  -0.735149264  
380000000  -0.602044046  -0.685212433  
381000000  -0.658237875  -0.630367279  
382000000  -0.709649861  -0.570755720  
383000000  -0.755318105  -0.506984711  
384000000  -0.795272887  -0.439588010  
385000000  -0.829204440  -0.368999511  
386000000  -0.856635392  -0.296026498  
387000000  -0.877789855  -0.220661029  
388000000  -0.892194569  -0.144054532  
389000000  -0.899909794  -0.066520050  
390000000  -0.900825977  0.011229374  
391000000  -0.895068109  0.088691249  
392000000  -0.882718980  0.165364861  
393000000  -0.863942921  0.240462318  
394000000  -0.838624120  0.313732147  
395000000  -0.807263076  0.384448558  
396000000  -0.769972265  0.452145427  
397000000  -0.727042913  0.516411126  
398000000  -0.678663909  0.576752245  
399000000  -0.625181139  0.632933974  
400000000  -0.567209661  0.684076071  
401000000  -0.504720211  0.730294108  
402000000  -0.438499272  0.770670533  
403000000  -0.368973285  0.805569172  
404000000  -0.296067238  0.834245741  
405000000  -0.221339971  0.856505215  
406000000  -0.144449651  0.872161031  
407000000  -0.066570111  0.880801499  
408000000  0.012131958  0.882746816  
409000000  0.090797111  0.877672136  
410000000  0.168610558  0.865483105  
411000000  0.245331556  0.846388578  
412000000  0.320070088  0.820729733  
413000000  0.392685592  0.788590312  
414000000  0.461815447  0.749654293  
415000000  0.527178943  0.705121100  
416000000  0.588583112  0.654548585  
417000000  0.644896388  0.599007785  
418000000  0.696287811  0.538567245  
419000000  0.742221296  0.473975152  
420000000  0.782099545  0.405393124  
421000000  0.816006780  0.333745450  
422000000  0.843478620  0.259464085  
423000000  0.864336252  0.182848856  
424000000  0.878331900  0.104923591  
425000000  0.885442555  0.025762595  
426000000  0.885446966  -0.053723078  
427000000  0.878312707  -0.132901549  
428000000  0.864102125  -0.211316824  
429000000  0.842826426  -0.288182408  
430000000  0.814531326  -0.362848163  
431000000  0.779611111  -0.434500366  
432000000  0.738490283  -0.502655983  
433000000  0.690924704  -0.566863000  
434000000  0.638170481  -0.626317859  
435000000  0.580241740  -0.680608153  
436000000  0.517768025  -0.729289114  
437000000  0.451358825  -0.772348404  
438000000  0.381466210  -0.809171438  
439000000  0.308956504  -0.839320362  
440000000  0.233795762  -0.863316059  
441000000  0.157283008  -0.880007207  
442000000  0.080060661  -0.890304267  
443000000  0.001985805  -0.893321097  
444000000  -0.075970314  -0.889977336  
445000000  -0.152692810  -0.879675150  
446000000  -0.228809118  -0.862695754  
447000000  -0.302493185  -0.839347541  
448000000  -0.374273837  -0.809389651  
449000000  -0.442796230  -0.773472548  
450000000  -0.507670164  -0.731587112  
451000000  -0.568675160  -0.684070647  
452000000  -0.625229836  -0.631751955  
453000000  -0.676871240  -0.574835658  
454000000  -0.723116994  -0.513401926  
455000000  -0.763888299  -0.448411733  
456000000  -0.798709393  -0.380219400  
457000000  -0.827568233  -0.309154123  
458000000  -0.850135326  -0.236220345  
459000000  -0.866089106  -0.161343768  
460000000  -0.875517070  -0.085557103  
461000000  -0.878320575  -0.009438050  
462000000  -0.874572456  0.066741571  
463000000  -0.864218950  0.142174453  
464000000  -0.847365439  0.216425493  
465000000  -0.824121356  0.289061904  
466000000  -0.794793844  0.359444290  
467000000  -0.759433627  0.426774859  
468000000  -0.718500495  0.490996540  
469000000  -0.671902120  0.551319778  
470000000  -0.620317638  0.607429743  
471000000  -0.564345121  0.659039438  
472000000  -0.503838956  0.705375373  
473000000  -0.439612836  0.746706128  
474000000  -0.372139871  0.781925380  
475000000  -0.301396161  0.811678112  
476000000  -0.228666484  0.834830642  
477000000  -0.153905958  0.851604879  
478000000  -0.077952839  0.861857176  
479000000  -0.001323768  0.865170240  
480000000  0.075744860  0.861854613  
481000000  0.152281702  0.851639390  
482000000  0.227578670  0.834886312  
483000000  0.301380694  0.811279535  
484000000  0.372820109  0.781117439  
485000000  0.441376358  0.744772851  
486000000  0.506347358  0.702246845  
487000000  0.567482948  0.654488742  
488000000  0.624242246  0.601170003  
489000000  0.675962508  0.543368876  
490000000  0.722441852  0.480916440  
491000000  0.763405859  0.414867520  
492000000  0.798439384  0.345384061  
493000000  0.827245474  0.272917211  
494000000  0.849531770  0.198119700  
495000000  0.865182340  0.121781930  
496000000  0.873864174  0.044333890  
497000000  0.875601888  -0.033670247  
498000000  0.870216370  -0.111480072  
499000000  0.858154774  -0.188457534  
500000000  0.839136124  -0.264144480  
