!Trace Data File
!Measurement: Smith Chart
!Data Points: 4000
#Freq/Hz  Real  Image
1000000  1.092298865  -0.173201680  
2000000  1.079662442  -0.249326169  
3000000  1.055000663  -0.330786526  
4000000  1.023279071  -0.414397389  
5000000  0.985818565  -0.496580780  
6000000  0.938884139  -0.577448487  
7000000  0.886128724  -0.654181480  
8000000  0.826792121  -0.727119327  
9000000  0.761072636  -0.794944286  
10000000  0.689583659  -0.857084513  
11000000  0.612279475  -0.913518786  
12000000  0.530458748  -0.963058412  
13000000  0.443779916  -1.005358934  
14000000  0.353321642  -1.040242791  
15000000  0.260203779  -1.066739917  
16000000  0.164432257  -1.085176110  
17000000  0.066794038  -1.094956160  
18000000  -0.031592481  -1.096006393  
19000000  -0.130199879  -1.088007092  
20000000  -0.228131026  -1.070905685  
21000000  -0.324409574  -1.044800520  
22000000  -0.418138117  -1.009930849  
23000000  -0.508543551  -0.966205060  
24000000  -0.594627738  -0.914128542  
25000000  -0.675366342  -0.854497969  
26000000  -0.750473022  -0.786926150  
27000000  -0.818403006  -0.712924659  
28000000  -0.879290581  -0.633330762  
29000000  -0.932107985  -0.548421204  
30000000  -0.976750910  -0.459479511  
31000000  -1.012766361  -0.366488427  
32000000  -1.040150285  -0.271156907  
33000000  -1.058414221  -0.173538208  
34000000  -1.067756891  -0.074757144  
35000000  -1.067933321  0.024296410  
36000000  -1.058928847  0.122544259  
37000000  -1.041074634  0.219092458  
38000000  -1.014528751  0.313332349  
39000000  -0.979800820  0.404190928  
40000000  -0.936905205  0.491273403  
41000000  -0.886332750  0.574044406  
42000000  -0.828848362  0.651328564  
43000000  -0.764464796  0.723136604  
44000000  -0.694055319  0.788467526  
45000000  -0.618518293  0.847017944  
46000000  -0.538311541  0.898333371  
47000000  -0.454524726  0.941687703  
48000000  -0.367697179  0.977458656  
49000000  -0.278368980  1.004896402  
50000000  -0.187714368  1.024475694  
51000000  -0.095893174  1.035911322  
52000000  -0.004146025  1.039443970  
53000000  0.087485783  1.035200834  
54000000  0.178019494  1.022647858  
55000000  0.266371042  1.002883554  
56000000  0.352647275  0.975823939  
57000000  0.436174840  0.941221654  
58000000  0.516078413  0.900059700  
59000000  0.592010617  0.852253973  
60000000  0.663516879  0.798412263  
61000000  0.729906857  0.738831937  
62000000  0.791021109  0.674223065  
63000000  0.846500337  0.604164422  
64000000  0.895705700  0.529943764  
65000000  0.938800216  0.451616704  
66000000  0.975065053  0.369805843  
67000000  1.004124403  0.284924150  
68000000  1.025751948  0.198052615  
69000000  1.040055156  0.109384701  
70000000  1.046813011  0.019343421  
71000000  1.045529127  -0.071038499  
72000000  1.036485076  -0.160938531  
73000000  1.019811988  -0.249752805  
74000000  0.995544076  -0.336616129  
75000000  0.963970482  -0.421069801  
76000000  0.925147295  -0.502674043  
77000000  0.879345775  -0.581027925  
78000000  0.826676250  -0.655220449  
79000000  0.767849743  -0.724842370  
80000000  0.702645719  -0.789302766  
81000000  0.631905019  -0.847826779  
82000000  0.556144059  -0.900495112  
83000000  0.475677967  -0.945881784  
84000000  0.391048998  -0.984460294  
85000000  0.303335160  -1.015501261  
86000000  0.212920770  -1.038302779  
87000000  0.120046049  -1.053221703  
88000000  0.026041089  -1.059666514  
89000000  -0.068478093  -1.057472706  
90000000  -0.162555709  -1.046573162  
91000000  -0.255494297  -1.027052045  
92000000  -0.346395165  -0.999157190  
93000000  -0.434559375  -0.962764680  
94000000  -0.519014657  -0.918242037  
95000000  -0.599094212  -0.866280019  
96000000  -0.673941076  -0.807305276  
97000000  -0.743100703  -0.741265059  
98000000  -0.805865049  -0.669089317  
99000000  -0.861649394  -0.591561258  
100000000  -0.910013318  -0.509371102  
101000000  -0.950454772  -0.423333317  
102000000  -0.982740998  -0.334366173  
103000000  -1.006790519  -0.242603749  
104000000  -1.022216439  -0.148681685  
105000000  -1.029014587  -0.053845301  
106000000  -1.027001381  0.041076712  
107000000  -1.016385913  0.135290891  
108000000  -0.997089803  0.227792352  
109000000  -0.969624817  0.317825407  
110000000  -0.933976769  0.404963464  
111000000  -0.890671194  0.488148391  
112000000  -0.839970887  0.566821516  
113000000  -0.782501757  0.640562773  
114000000  -0.718913555  0.708338439  
115000000  -0.649514496  0.769951165  
116000000  -0.575416863  0.824702084  
117000000  -0.496976674  0.872194290  
118000000  -0.414847136  0.912732661  
119000000  -0.329904824  0.945248246  
120000000  -0.242973655  0.969921231  
121000000  -0.154702529  0.987099290  
122000000  -0.065324567  0.996398866  
123000000  0.023907816  0.997788787  
124000000  0.112872809  0.991479635  
125000000  0.200582385  0.977340281  
126000000  0.286760926  0.956290364  
127000000  0.369976759  0.927569509  
128000000  0.450295568  0.892123222  
129000000  0.527403176  0.849631846  
130000000  0.600657225  0.800985932  
131000000  0.669156492  0.746106923  
132000000  0.732716680  0.685854495  
133000000  0.790717602  0.620372534  
134000000  0.842778683  0.550400734  
135000000  0.888757825  0.476177722  
136000000  0.928467453  0.398279309  
137000000  0.961440384  0.316736788  
138000000  0.987328649  0.232104585  
139000000  1.005875230  0.145343661  
140000000  1.016580582  0.056932293  
141000000  1.019607306  -0.031942599  
142000000  1.014780521  -0.120483108  
143000000  1.002378106  -0.208094507  
144000000  0.982499659  -0.294249088  
145000000  0.955247283  -0.378427505  
146000000  0.920934796  -0.460103422  
147000000  0.879506409  -0.538785160  
148000000  0.831221521  -0.613648772  
149000000  0.776528835  -0.684306383  
150000000  0.715560913  -0.749975324  
151000000  0.648730159  -0.810148895  
152000000  0.576749563  -0.864340484  
153000000  0.500303984  -0.912364662  
154000000  0.419596612  -0.953263342  
155000000  0.335165501  -0.986804903  
156000000  0.248067752  -1.012921214  
157000000  0.158681735  -1.031149983  
158000000  0.068063661  -1.041145921  
159000000  -0.023653859  -1.042973161  
160000000  -0.115237877  -1.036308527  
161000000  -0.205914035  -1.021680117  
162000000  -0.294847101  -0.998610318  
163000000  -0.381413013  -0.967449009  
164000000  -0.464759380  -0.928768694  
165000000  -0.544123054  -0.882454276  
166000000  -0.619168580  -0.829234600  
167000000  -0.688760340  -0.769277692  
168000000  -0.752610803  -0.703622758  
169000000  -0.809983194  -0.632645011  
170000000  -0.860447943  -0.556849301  
171000000  -0.903925300  -0.477483898  
172000000  -0.940065265  -0.394805640  
173000000  -0.968708217  -0.309289068  
174000000  -0.989437699  -0.221644923  
175000000  -1.002365589  -0.132558078  
176000000  -1.007263660  -0.042679191  
177000000  -1.004241228  0.046966899  
178000000  -0.993356764  0.135967240  
179000000  -0.974413157  0.223314002  
180000000  -0.948042691  0.308802992  
181000000  -0.914004683  0.391440749  
182000000  -0.872659326  0.470832348  
183000000  -0.824712396  0.545929551  
184000000  -0.770297408  0.615958393  
185000000  -0.710208595  0.681284785  
186000000  -0.644872069  0.740576506  
187000000  -0.574608624  0.793672681  
188000000  -0.500530481  0.840079844  
189000000  -0.422861964  0.879755616  
190000000  -0.342505485  0.912439942  
191000000  -0.259629548  0.938144505  
192000000  -0.175129816  0.956623316  
193000000  -0.089389548  0.967666328  
194000000  -0.003193604  0.971376061  
195000000  0.082748123  0.967202604  
196000000  0.167814404  0.955851853  
197000000  0.251322359  0.937521100  
198000000  0.332668483  0.912063539  
199000000  0.411522478  0.880135834  
200000000  0.487371147  0.841494322  
201000000  0.559441864  0.796711922  
202000000  0.627828717  0.745793223  
203000000  0.691854477  0.689146280  
204000000  0.750921369  0.627037108  
205000000  0.804450154  0.559829056  
206000000  0.852447808  0.487837702  
207000000  0.893783808  0.411687076  
208000000  0.928193927  0.331930161  
209000000  0.955480456  0.249356136  
210000000  0.975423694  0.164874494  
211000000  0.988114417  0.079207227  
212000000  0.993409872  -0.006979009  
213000000  0.991309106  -0.093005009  
214000000  0.981965542  -0.178404883  
215000000  0.965485811  -0.262812287  
216000000  0.941596568  -0.345497549  
217000000  0.910636783  -0.426238656  
218000000  0.872551501  -0.504069328  
219000000  0.827790022  -0.578565896  
220000000  0.776578248  -0.648889840  
221000000  0.719127953  -0.714566648  
222000000  0.656164587  -0.775087655  
223000000  0.587693453  -0.830057144  
224000000  0.514777839  -0.878729701  
225000000  0.437294900  -0.920770705  
226000000  0.356496274  -0.955808103  
227000000  0.272886902  -0.983696520  
228000000  0.186758861  -1.003805518  
229000000  0.099344932  -1.016394019  
230000000  0.010873721  -1.021029711  
231000000  -0.077475801  -1.017551661  
232000000  -0.165162981  -1.006360650  
233000000  -0.251366198  -0.987200141  
234000000  -0.335615575  -0.960627735  
235000000  -0.416805834  -0.926900566  
236000000  -0.494707614  -0.886164844  
237000000  -0.568449140  -0.838582873  
238000000  -0.637573421  -0.784928858  
239000000  -0.701627254  -0.725709677  
240000000  -0.760224938  -0.661196828  
241000000  -0.812881231  -0.591840327  
242000000  -0.859138906  -0.518111467  
243000000  -0.898789585  -0.440468758  
244000000  -0.931213319  -0.359790444  
245000000  -0.956565976  -0.276451349  
246000000  -0.974252939  -0.191362128  
247000000  -0.984501958  -0.105154812  
248000000  -0.987197399  -0.018722538  
249000000  -0.982355833  0.067418225  
250000000  -0.970089674  0.152658477  
251000000  -0.950179219  0.236595467  
252000000  -0.923086345  0.318410248  
253000000  -0.888835132  0.397371203  
254000000  -0.848091245  0.472989529  
255000000  -0.800917268  0.544593513  
256000000  -0.747486770  0.611720741  
257000000  -0.688873351  0.673839092  
258000000  -0.624827385  0.730520487  
259000000  -0.556426346  0.781353474  
260000000  -0.483547270  0.826152623  
261000000  -0.407537431  0.864020705  
262000000  -0.328486651  0.895344913  
263000000  -0.246982962  0.919617116  
264000000  -0.163730025  0.937026203  
265000000  -0.079489201  0.946984291  
266000000  0.005633851  0.949589193  
267000000  0.090532050  0.944876909  
268000000  0.174879804  0.932646215  
269000000  0.258121997  0.913142622  
270000000  0.339739144  0.886410117  
271000000  0.418825775  0.851969242  
272000000  0.494897544  0.811400712  
273000000  0.567029834  0.763767898  
274000000  0.634969056  0.709437072  
275000000  0.697757661  0.649336994  
276000000  0.755115569  0.583764553  
277000000  0.806198657  0.513011575  
278000000  0.850784540  0.438002765  
279000000  0.888194680  0.359439999  
280000000  0.918588459  0.278019518  
281000000  0.941701531  0.194387227  
282000000  0.957560599  0.109254174  
283000000  0.965832293  0.023314811  
284000000  0.966547847  -0.062988557  
285000000  0.959681749  -0.148992017  
286000000  0.945090950  -0.234123364  
287000000  0.922949553  -0.317694575  
288000000  0.893523514  -0.398853898  
289000000  0.856929123  -0.477262944  
290000000  0.813358903  -0.551869571  
291000000  0.763358474  -0.622499406  
292000000  0.707338750  -0.688327074  
293000000  0.645443738  -0.748924613  
294000000  0.578601122  -0.803702950  
295000000  0.506717801  -0.852401674  
296000000  0.431097776  -0.894114077  
297000000  0.351941258  -0.928877711  
298000000  0.270081609  -0.956430793  
299000000  0.186102018  -0.976633728  
300000000  0.101108894  -0.989049494  
301000000  0.015213174  -0.993993461  
302000000  -0.070579194  -0.990946829  
303000000  -0.155073345  -0.980648339  
304000000  -0.238305464  -0.963017046  
305000000  -0.319414467  -0.938260436  
306000000  -0.397859812  -0.906747103  
307000000  -0.472573370  -0.868638575  
308000000  -0.544034481  -0.824406505  
309000000  -0.611389995  -0.774474025  
310000000  -0.674081683  -0.718943834  
311000000  -0.731755793  -0.658186555  
312000000  -0.783622682  -0.592661917  
313000000  -0.829733074  -0.523072720  
314000000  -0.869537175  -0.449947804  
315000000  -0.902918816  -0.373722255  
316000000  -0.929579973  -0.295164913  
317000000  -0.949561954  -0.214587331  
318000000  -0.962568521  -0.132719532  
319000000  -0.968488991  -0.050222728  
320000000  -0.967352867  0.032786928  
321000000  -0.958894968  0.114982188  
322000000  -0.943410575  0.196227789  
323000000  -0.920867682  0.275791198  
324000000  -0.891596198  0.353032410  
325000000  -0.855920494  0.427416801  
326000000  -0.814085364  0.498301178  
327000000  -0.766428649  0.565353155  
328000000  -0.713327646  0.627828419  
329000000  -0.655185342  0.685613155  
330000000  -0.592213452  0.738414764  
331000000  -0.525072992  0.785636663  
332000000  -0.454132110  0.827147782  
333000000  -0.379766196  0.862395465  
334000000  -0.302548945  0.891380072  
335000000  -0.223048553  0.913441300  
336000000  -0.141387314  0.928695917  
337000000  -0.058502126  0.937412083  
338000000  0.025259940  0.938185632  
339000000  0.109010749  0.932008147  
340000000  0.192375407  0.918252051  
341000000  0.274390280  0.897237957  
342000000  0.354383111  0.868746340  
343000000  0.432069123  0.832956076  
344000000  0.506053329  0.790503323  
345000000  0.576552033  0.741266489  
346000000  0.642164826  0.685491443  
347000000  0.702424705  0.623968899  
348000000  0.756937206  0.556930780  
349000000  0.805064678  0.485494941  
350000000  0.846718192  0.410046667  
351000000  0.881216288  0.331161112  
352000000  0.908755660  0.249584913  
353000000  0.928870082  0.165988773  
354000000  0.941467881  0.081049800  
355000000  0.946247280  -0.004695388  
356000000  0.943493187  -0.090524293  
357000000  0.932981670  -0.175749451  
358000000  0.914642811  -0.259719968  
359000000  0.888714552  -0.341733098  
360000000  0.855430424  -0.420960724  
361000000  0.815207303  -0.496924937  
362000000  0.768102050  -0.568910003  
363000000  0.714669347  -0.636058569  
364000000  0.655300379  -0.698220015  
365000000  0.590531051  -0.754148960  
366000000  0.521105051  -0.804090202  
367000000  0.447686702  -0.847532511  
368000000  0.370803863  -0.883586228  
369000000  0.291137040  -0.912741005  
370000000  0.209448814  -0.934907615  
371000000  0.126253799  -0.948997200  
372000000  0.042396609  -0.956230581  
373000000  -0.041009326  -0.955611348  
374000000  -0.123838931  -0.947606981  
375000000  -0.205725983  -0.932859063  
376000000  -0.285465151  -0.911100566  
377000000  -0.363152504  -0.882521629  
378000000  -0.437791586  -0.847426474  
379000000  -0.508980751  -0.806186557  
380000000  -0.576187968  -0.758919001  
381000000  -0.639004350  -0.705970645  
382000000  -0.696900487  -0.647863984  
383000000  -0.749446571  -0.585039079  
384000000  -0.796119213  -0.518044651  
385000000  -0.836685479  -0.447135836  
386000000  -0.870926380  -0.373203337  
387000000  -0.898595631  -0.296653122  
388000000  -0.919644415  -0.217939153  
389000000  -0.933668375  -0.137947038  
390000000  -0.940729976  -0.056973357  
391000000  -0.940574884  0.024075573  
392000000  -0.933671117  0.104560114  
393000000  -0.919834077  0.184227556  
394000000  -0.899242282  0.262273699  
395000000  -0.872110784  0.338081747  
396000000  -0.838670909  0.411369354  
397000000  -0.799130201  0.481717765  
398000000  -0.753574729  0.548075974  
399000000  -0.702627122  0.610336006  
400000000  -0.646257937  0.668303788  
401000000  -0.585329831  0.721074522  
402000000  -0.519968271  0.768542647  
403000000  -0.450517058  0.810089290  
404000000  -0.377584726  0.845742047  
405000000  -0.301828772  0.875164688  
406000000  -0.223389819  0.897659063  
407000000  -0.143137708  0.913323462  
408000000  -0.061717730  0.921840787  
409000000  0.020447657  0.923039019  
410000000  0.102216944  0.917308033  
411000000  0.183506086  0.903993368  
412000000  0.263333201  0.883786738  
413000000  0.341305435  0.856525064  
414000000  0.416526824  0.822214365  
415000000  0.488633066  0.781250358  
416000000  0.556648791  0.734200239  
417000000  0.620339751  0.681099534  
418000000  0.678985953  0.622887433  
419000000  0.732238829  0.559521675  
420000000  0.779847264  0.491628259  
421000000  0.821269155  0.419971049  
422000000  0.856217563  0.344928801  
423000000  0.884693384  0.267158031  
424000000  0.906328499  0.187174469  
425000000  0.920624614  0.105470762  
426000000  0.927730978  0.022845332  
427000000  0.927455604  -0.060264319  
428000000  0.919754386  -0.143138424  
429000000  0.904552519  -0.225022808  
430000000  0.882105350  -0.305268675  
431000000  0.852209151  -0.383343190  
432000000  0.815385580  -0.458173126  
433000000  0.771888673  -0.529435456  
434000000  0.722353935  -0.596436501  
435000000  0.666867375  -0.658380926  
436000000  0.606143951  -0.714862585  
437000000  0.540714264  -0.765801072  
438000000  0.471040845  -0.810365438  
439000000  0.397911996  -0.848839998  
440000000  0.322084814  -0.880614161  
441000000  0.243572086  -0.904979527  
442000000  0.163599521  -0.922762871  
443000000  0.082526915  -0.933358788  
444000000  0.000844565  -0.936541200  
445000000  -0.080192566  -0.933050513  
446000000  -0.160974011  -0.922296464  
447000000  -0.240218073  -0.904763937  
448000000  -0.317723811  -0.880346537  
449000000  -0.392483801  -0.848986745  
450000000  -0.464278370  -0.811161578  
451000000  -0.532294989  -0.767697811  
452000000  -0.596203744  -0.718146861  
453000000  -0.655369699  -0.663371921  
454000000  -0.709579706  -0.603923202  
455000000  -0.758262157  -0.539905012  
456000000  -0.801196933  -0.471999258  
457000000  -0.837922871  -0.400644302  
458000000  -0.868422091  -0.326431781  
459000000  -0.892082036  -0.250108421  
460000000  -0.909080148  -0.171961442  
461000000  -0.919354796  -0.092716508  
462000000  -0.922664464  -0.013058780  
463000000  -0.919152617  0.066647895  
464000000  -0.908688545  0.145697668  
465000000  -0.891749144  0.223602355  
466000000  -0.867818296  0.299775451  
467000000  -0.837641060  0.373530954  
468000000  -0.801056504  0.444299251  
469000000  -0.758688271  0.511713028  
470000000  -0.710789084  0.575264215  
471000000  -0.657212675  0.634344637  
472000000  -0.599011064  0.688966513  
473000000  -0.536144614  0.738174498  
474000000  -0.469461411  0.781691968  
475000000  -0.399122149  0.819483399  
476000000  -0.325319707  0.851010025  
477000000  -0.249442503  0.876275718  
478000000  -0.171427652  0.894618750  
479000000  -0.091869079  0.906081676  
480000000  -0.011325822  0.910849035  
481000000  0.069287501  0.908207655  
482000000  0.149788201  0.898554683  
483000000  0.229201555  0.881437719  
484000000  0.306571364  0.857817471  
485000000  0.382152677  0.827001393  
486000000  0.454469323  0.789636135  
487000000  0.523287833  0.746050954  
488000000  0.587942183  0.696456194  
489000000  0.648102522  0.641533077  
490000000  0.703362465  0.581336558  
491000000  0.753063440  0.516699314  
492000000  0.796915591  0.447803050  
493000000  0.834828079  0.375456870  
494000000  0.866302252  0.299925625  
495000000  0.890762031  0.221780419  
496000000  0.908239782  0.141802907  
497000000  0.918642044  0.060639221  
498000000  0.921671987  -0.021120401  
499000000  0.917485118  -0.102962404  
500000000  0.906033874  -0.184268817  
