!Trace Data File
!Measurement: Smith Chart
!Data Points: 4000
#Freq/Hz  Real  Image
1000000  1.087742209  -0.174720153  
2000000  1.074851155  -0.249833956  
3000000  1.050020576  -0.330463290  
4000000  1.018471122  -0.413218439  
5000000  0.979250789  -0.495839268  
6000000  0.934504271  -0.575193226  
7000000  0.881962359  -0.651460111  
8000000  0.823214769  -0.723689139  
9000000  0.757698953  -0.791300595  
10000000  0.686417699  -0.853381574  
11000000  0.609958231  -0.909257829  
12000000  0.528601348  -0.958441317  
13000000  0.442476183  -1.000697255  
14000000  0.352636755  -1.035323977  
15000000  0.259924173  -1.062005520  
16000000  0.164687291  -1.080468059  
17000000  0.067538247  -1.090231419  
18000000  -0.030276500  -1.091427088  
19000000  -0.128281966  -1.083500862  
20000000  -0.225825667  -1.066724181  
21000000  -0.321617007  -1.041006207  
22000000  -0.414949864  -1.006372213  
23000000  -0.505188406  -0.963284850  
24000000  -0.590799034  -0.911546886  
25000000  -0.671740234  -0.851952732  
26000000  -0.746123254  -0.785262525  
27000000  -0.814255238  -0.711708248  
28000000  -0.874763191  -0.632532239  
29000000  -0.927650630  -0.548055172  
30000000  -0.972196341  -0.459234387  
31000000  -1.008387685  -0.367124140  
32000000  -1.035858512  -0.272044420  
33000000  -1.054315567  -0.174963176  
34000000  -1.063904762  -0.076501578  
35000000  -1.064298034  0.022119325  
36000000  -1.055632949  0.120171621  
37000000  -1.038119793  0.216351822  
38000000  -1.011949539  0.310176134  
39000000  -0.977445185  0.400965661  
40000000  -0.934808969  0.488136262  
41000000  -0.884800971  0.570307255  
42000000  -0.827517092  0.647730887  
43000000  -0.763512909  0.719525337  
44000000  -0.693837345  0.784812450  
45000000  -0.618406892  0.843392730  
46000000  -0.538624704  0.894397855  
47000000  -0.455128849  0.938099802  
48000000  -0.368594825  0.973799050  
49000000  -0.279696256  1.001612306  
50000000  -0.189140812  1.021463990  
51000000  -0.097665086  1.033088565  
52000000  -0.006072909  1.036830425  
53000000  0.085136190  1.032620549  
54000000  0.175392747  1.020595431  
55000000  0.263902992  1.001087666  
56000000  0.350016296  0.974150240  
57000000  0.433245808  0.939934373  
58000000  0.513084292  0.899012864  
59000000  0.588908017  0.851438582  
60000000  0.660267353  0.798103988  
61000000  0.726813197  0.738759637  
62000000  0.788139939  0.673923731  
63000000  0.843395472  0.604516149  
64000000  0.892823339  0.530564189  
65000000  0.935800731  0.452532828  
66000000  0.972271204  0.370927334  
67000000  1.001501799  0.286345273  
68000000  1.023354769  0.199510649  
69000000  1.037857056  0.111215062  
70000000  1.044661283  0.021434762  
71000000  1.043718815  -0.068826042  
72000000  1.035074592  -0.158640489  
73000000  1.018382192  -0.247195587  
74000000  0.994364500  -0.334003448  
75000000  0.962952793  -0.418324292  
76000000  0.924387753  -0.499978721  
77000000  0.878895521  -0.578191042  
78000000  0.826604068  -0.652265251  
79000000  0.767870486  -0.722010612  
80000000  0.703062117  -0.786252320  
81000000  0.632683098  -0.845040143  
82000000  0.557145774  -0.897670329  
83000000  0.476918519  -0.943403125  
84000000  0.392561108  -0.982106626  
85000000  0.304944128  -1.013040543  
86000000  0.214572459  -1.036173463  
87000000  0.122057259  -1.051266313  
88000000  0.028463911  -1.057814598  
89000000  -0.065903097  -1.055979371  
90000000  -0.159875065  -1.045447230  
91000000  -0.252795726  -1.026084304  
92000000  -0.343617409  -0.998442709  
93000000  -0.431882113  -0.962363899  
94000000  -0.516252398  -0.918331921  
95000000  -0.596348047  -0.866507769  
96000000  -0.671225786  -0.807714701  
97000000  -0.740245938  -0.742029905  
98000000  -0.803321004  -0.669958055  
99000000  -0.859131634  -0.592544079  
100000000  -0.907697260  -0.510601461  
101000000  -0.948070109  -0.424772471  
102000000  -0.980512261  -0.335822910  
103000000  -1.004833817  -0.244419724  
104000000  -1.020500779  -0.150761813  
105000000  -1.027558684  -0.055891454  
106000000  -1.025695086  0.038937129  
107000000  -1.015313983  0.132975444  
108000000  -0.996313035  0.225387111  
109000000  -0.968948960  0.315485746  
110000000  -0.933454752  0.402505487  
111000000  -0.890572727  0.485663801  
112000000  -0.839987814  0.564589620  
113000000  -0.782896876  0.638081372  
114000000  -0.719369948  0.706194103  
115000000  -0.650273502  0.767592847  
116000000  -0.576122463  0.822546601  
117000000  -0.497945487  0.870382667  
118000000  -0.416029245  0.910581172  
119000000  -0.331490964  0.943501055  
120000000  -0.244705305  0.968342483  
121000000  -0.156362966  0.985621691  
122000000  -0.067424335  0.994999349  
123000000  0.022035126  0.996876776  
124000000  0.110679932  0.990601659  
125000000  0.198435381  0.976929784  
126000000  0.284411818  0.955410540  
127000000  0.367858380  0.927228987  
128000000  0.448287278  0.891721964  
129000000  0.525276184  0.849889696  
130000000  0.598644555  0.801210701  
131000000  0.667251289  0.746665418  
132000000  0.730626285  0.686421692  
133000000  0.788685143  0.621301949  
134000000  0.840974391  0.551414788  
135000000  0.887089550  0.477397472  
136000000  0.926894248  0.399497956  
137000000  0.959997356  0.318235844  
138000000  0.986156821  0.233852312  
139000000  1.004607439  0.147063524  
140000000  1.015618563  0.058775272  
141000000  1.018749356  -0.030047819  
142000000  1.014152408  -0.118450649  
143000000  1.001919627  -0.205996022  
144000000  0.982265592  -0.292040020  
145000000  0.955180466  -0.376193225  
146000000  0.921082616  -0.458019912  
147000000  0.879760325  -0.536548495  
148000000  0.831718206  -0.611428618  
149000000  0.777117491  -0.682285368  
150000000  0.716409862  -0.747951746  
151000000  0.649682760  -0.808236003  
152000000  0.578029752  -0.862624049  
153000000  0.501800060  -0.910538435  
154000000  0.421088904  -0.951800168  
155000000  0.336934924  -0.985252559  
156000000  0.249914497  -1.011697412  
157000000  0.160922483  -1.029972911  
158000000  0.070000358  -1.040264368  
159000000  -0.021390017  -1.042273879  
160000000  -0.112991057  -1.035906911  
161000000  -0.203598231  -1.021428227  
162000000  -0.292636245  -0.998552620  
163000000  -0.378988594  -0.967660964  
164000000  -0.462697506  -0.929057658  
165000000  -0.542143583  -0.882950246  
166000000  -0.617065251  -0.829974294  
167000000  -0.686571598  -0.770107567  
168000000  -0.750531137  -0.704746962  
169000000  -0.807979524  -0.634022295  
170000000  -0.858657420  -0.558522642  
171000000  -0.902373075  -0.479097694  
172000000  -0.938628316  -0.396357715  
173000000  -0.967564583  -0.311188638  
174000000  -0.988437712  -0.223649576  
175000000  -1.001579046  -0.134529054  
176000000  -1.006631851  -0.044918615  
177000000  -1.003713012  0.044867449  
178000000  -0.992959559  0.133697331  
179000000  -0.974303961  0.221176207  
180000000  -0.948031068  0.306571752  
181000000  -0.914215624  0.389343530  
182000000  -0.873301983  0.468657970  
183000000  -0.825466335  0.543738365  
184000000  -0.771124661  0.614166141  
185000000  -0.711090446  0.679373503  
186000000  -0.645612895  0.738799036  
187000000  -0.575784445  0.791825950  
188000000  -0.501841009  0.838465810  
189000000  -0.424285114  0.878289819  
190000000  -0.344164431  0.911310732  
191000000  -0.261280060  0.937144220  
192000000  -0.176930532  0.955638945  
193000000  -0.091493599  0.966828346  
194000000  -0.005041833  0.970555723  
195000000  0.080772549  0.966860414  
196000000  0.165804937  0.955846369  
197000000  0.249459699  0.937518001  
198000000  0.330715209  0.912150919  
199000000  0.409456432  0.880183995  
200000000  0.485226274  0.841836810  
201000000  0.557767987  0.797106445  
202000000  0.626077652  0.746663392  
203000000  0.690138459  0.690027237  
204000000  0.749266684  0.628087461  
205000000  0.803082108  0.560941219  
206000000  0.850822926  0.489159584  
207000000  0.892416596  0.413154900  
208000000  0.927100778  0.333419591  
209000000  0.954552174  0.251025021  
210000000  0.974609554  0.166605651  
211000000  0.987399101  0.081029452  
212000000  0.992852032  -0.005037749  
213000000  0.991056442  -0.091067635  
214000000  0.981840014  -0.176492110  
215000000  0.965363741  -0.260877132  
216000000  0.941670537  -0.343724012  
217000000  0.910867989  -0.424358815  
218000000  0.873170674  -0.502286136  
219000000  0.828490555  -0.576687217  
220000000  0.777383745  -0.647138417  
221000000  0.720079124  -0.712984383  
222000000  0.657307863  -0.773537278  
223000000  0.589006841  -0.828579664  
224000000  0.516216099  -0.877478719  
225000000  0.438915849  -0.919595003  
226000000  0.358043492  -0.954767346  
227000000  0.274470717  -0.982699394  
228000000  0.188556924  -1.003359079  
229000000  0.101090275  -1.015680432  
230000000  0.012775869  -1.020536184  
231000000  -0.075624593  -1.017359853  
232000000  -0.163199037  -1.006396770  
233000000  -0.249379709  -0.987498045  
234000000  -0.333560556  -0.960854471  
235000000  -0.415072352  -0.927397013  
236000000  -0.492820889  -0.886622071  
237000000  -0.566862702  -0.839322388  
238000000  -0.635846078  -0.785919189  
239000000  -0.700177312  -0.726798952  
240000000  -0.758750260  -0.662435293  
241000000  -0.811457217  -0.593259573  
242000000  -0.857904553  -0.519631386  
243000000  -0.897620142  -0.442105144  
244000000  -0.930324852  -0.361308068  
245000000  -0.955691576  -0.278119385  
246000000  -0.973591745  -0.193021938  
247000000  -0.984038591  -0.106915981  
248000000  -0.986825764  -0.020557787  
249000000  -0.982120097  0.065598845  
250000000  -0.970014453  0.150762305  
251000000  -0.950336277  0.234751523  
252000000  -0.923289716  0.316563725  
253000000  -0.889345288  0.395572603  
254000000  -0.848533452  0.471353501  
255000000  -0.801396191  0.542888761  
256000000  -0.748356998  0.610043585  
257000000  -0.689727604  0.672306478  
258000000  -0.625906348  0.729161859  
259000000  -0.557506919  0.779925168  
260000000  -0.485073984  0.824654043  
261000000  -0.408890724  0.863008916  
262000000  -0.329771936  0.894532442  
263000000  -0.248440534  0.919067502  
264000000  -0.165310100  0.936181843  
265000000  -0.081226394  0.946550667  
266000000  0.003771616  0.949258089  
267000000  0.088837519  0.944500387  
268000000  0.173255458  0.932894707  
269000000  0.256304830  0.913099289  
270000000  0.337948591  0.886712253  
271000000  0.417537391  0.853103995  
272000000  0.493183970  0.811936200  
273000000  0.565422714  0.764412999  
274000000  0.633462608  0.710357964  
275000000  0.696320176  0.650391936  
276000000  0.753713667  0.584949970  
277000000  0.804952562  0.514410913  
278000000  0.849530995  0.439429730  
279000000  0.887232244  0.360871643  
280000000  0.917734265  0.279604644  
281000000  0.940972328  0.196024105  
282000000  0.956926465  0.110972896  
283000000  0.965456247  0.025087325  
284000000  0.966279209  -0.061240647  
285000000  0.959665775  -0.147097468  
286000000  0.945292056  -0.232221231  
287000000  0.923349261  -0.315813124  
288000000  0.894018531  -0.397119820  
289000000  0.857510030  -0.475360811  
290000000  0.814140975  -0.550236583  
291000000  0.764457166  -0.620908439  
292000000  0.708448291  -0.686799884  
293000000  0.646665812  -0.747658610  
294000000  0.579926550  -0.802425444  
295000000  0.508176088  -0.850971282  
296000000  0.432632297  -0.893191516  
297000000  0.353732049  -0.928112507  
298000000  0.271672875  -0.955903590  
299000000  0.187986776  -0.976027787  
300000000  0.102848962  -0.988793492  
301000000  0.017301515  -0.993581176  
302000000  -0.068520062  -0.990928113  
303000000  -0.153109387  -0.980562866  
304000000  -0.236384466  -0.963135958  
305000000  -0.317584097  -0.938581944  
306000000  -0.395918787  -0.907165945  
307000000  -0.471048445  -0.869403660  
308000000  -0.542492568  -0.825220227  
309000000  -0.609838426  -0.775371850  
310000000  -0.672903895  -0.720079243  
311000000  -0.730338275  -0.659326375  
312000000  -0.782521069  -0.593961418  
313000000  -0.828691006  -0.524563909  
314000000  -0.868665814  -0.451345295  
315000000  -0.902103901  -0.375388920  
316000000  -0.928952694  -0.296780616  
317000000  -0.949096143  -0.216336146  
318000000  -0.962168932  -0.134441212  
319000000  -0.968328118  -0.051925708  
320000000  -0.967166662  0.030793598  
321000000  -0.958968997  0.113173418  
322000000  -0.943528712  0.194452360  
323000000  -0.921114087  0.274095744  
324000000  -0.892094016  0.351404965  
325000000  -0.856523216  0.425773114  
326000000  -0.814736128  0.496830970  
327000000  -0.767211914  0.563822329  
328000000  -0.714167953  0.626440883  
329000000  -0.656204879  0.684359372  
330000000  -0.593491912  0.737074077  
331000000  -0.526434541  0.784442484  
332000000  -0.455578953  0.826105058  
333000000  -0.381345928  0.861522555  
334000000  -0.304352701  0.890515924  
335000000  -0.224605531  0.912881970  
336000000  -0.143072665  0.928439736  
337000000  -0.060233887  0.936902285  
338000000  0.023624666  0.938062608  
339000000  0.107459798  0.931858242  
340000000  0.190632626  0.918388069  
341000000  0.272587359  0.897489429  
342000000  0.352621943  0.869073331  
343000000  0.430267155  0.833689213  
344000000  0.504575312  0.791239381  
345000000  0.574970543  0.741859674  
346000000  0.640634656  0.686426938  
347000000  0.701022208  0.624962270  
348000000  0.755644321  0.558276355  
349000000  0.803925693  0.486929387  
350000000  0.845593333  0.411515355  
351000000  0.880430222  0.332773328  
352000000  0.907997787  0.251245886  
353000000  0.928377748  0.167780906  
354000000  0.940942287  0.082828864  
355000000  0.946029961  -0.002857667  
356000000  0.943396151  -0.088713393  
357000000  0.933054924  -0.173880458  
358000000  0.914989114  -0.257863760  
359000000  0.889332056  -0.339892447  
360000000  0.856266677  -0.419260591  
361000000  0.816121340  -0.495139629  
362000000  0.769105613  -0.567281127  
363000000  0.715846956  -0.634524941  
364000000  0.656754196  -0.696705341  
365000000  0.592005372  -0.752969682  
366000000  0.522751749  -0.803169608  
367000000  0.449219257  -0.846524179  
368000000  0.372371405  -0.882877767  
369000000  0.292949766  -0.912153482  
370000000  0.211412594  -0.933968723  
371000000  0.128254697  -0.948736250  
372000000  0.044343259  -0.955828488  
373000000  -0.039115630  -0.955394983  
374000000  -0.122177809  -0.947818398  
375000000  -0.203851536  -0.933021963  
376000000  -0.283879519  -0.911526442  
377000000  -0.361457974  -0.883187473  
378000000  -0.435984582  -0.848331451  
379000000  -0.507390618  -0.807219863  
380000000  -0.574701965  -0.759886444  
381000000  -0.637710452  -0.706961811  
382000000  -0.695812583  -0.649085045  
383000000  -0.748263657  -0.586372793  
384000000  -0.794912159  -0.519212842  
385000000  -0.835761368  -0.448557258  
386000000  -0.870167077  -0.374663204  
387000000  -0.898016155  -0.298237890  
388000000  -0.919085562  -0.219583943  
389000000  -0.933244526  -0.139629543  
390000000  -0.940354407  -0.058703441  
391000000  -0.940433323  0.022246096  
392000000  -0.933626115  0.102832027  
393000000  -0.920014381  0.182515442  
394000000  -0.899664581  0.260467201  
395000000  -0.872631133  0.336493075  
396000000  -0.839150906  0.409795344  
397000000  -0.799722314  0.480083585  
398000000  -0.754338682  0.546677232  
399000000  -0.703580558  0.609131873  
400000000  -0.647408664  0.666981220  
401000000  -0.586582303  0.719908476  
402000000  -0.521378338  0.767540574  
403000000  -0.451864749  0.809248030  
404000000  -0.379233271  0.845130920  
405000000  -0.303110957  0.874485612  
406000000  -0.224859193  0.897107959  
407000000  -0.144645363  0.912958026  
408000000  -0.063433290  0.921615481  
409000000  0.018741658  0.923044026  
410000000  0.100601144  0.917289734  
411000000  0.181814924  0.904174864  
412000000  0.261760294  0.884145677  
413000000  0.339659184  0.856794775  
414000000  0.415012062  0.822712123  
415000000  0.486919641  0.782224059  
416000000  0.555233240  0.735227883  
417000000  0.618781209  0.682182908  
418000000  0.677680492  0.623798490  
419000000  0.730880558  0.560708940  
420000000  0.778681636  0.493037492  
421000000  0.820238113  0.421432197  
422000000  0.855358481  0.346622944  
423000000  0.883929789  0.268849254  
424000000  0.905556142  0.188869879  
425000000  0.920154274  0.107291959  
426000000  0.927570879  0.024703821  
427000000  0.927405596  -0.058296602  
428000000  0.919812918  -0.141114727  
429000000  0.904867768  -0.223108470  
430000000  0.882503510  -0.303454310  
431000000  0.852875292  -0.381383449  
432000000  0.816322803  -0.456372917  
433000000  0.773015678  -0.527562976  
434000000  0.723441184  -0.594501078  
435000000  0.668100655  -0.656577229  
436000000  0.607615352  -0.713550508  
437000000  0.542207658  -0.764457405  
438000000  0.472986877  -0.809311986  
439000000  0.399714440  -0.847734034  
440000000  0.323904961  -0.879508913  
441000000  0.245581090  -0.904442787  
442000000  0.165479511  -0.922206938  
443000000  0.084480323  -0.933192611  
444000000  0.003190227  -0.936809838  
445000000  -0.078281112  -0.933202028  
446000000  -0.158989385  -0.922353029  
447000000  -0.238220215  -0.905203283  
448000000  -0.315816373  -0.880813777  
449000000  -0.390640378  -0.849771082  
450000000  -0.462265491  -0.812163293  
451000000  -0.530543685  -0.768816710  
452000000  -0.594597876  -0.719538569  
453000000  -0.653835118  -0.665112734  
454000000  -0.708200574  -0.605421484  
455000000  -0.756985903  -0.541575849  
456000000  -0.799970627  -0.473674566  
457000000  -0.836985648  -0.402513713  
458000000  -0.867649674  -0.328482121  
459000000  -0.891534030  -0.252021432  
460000000  -0.908694029  -0.174011037  
461000000  -0.919155598  -0.094831862  
462000000  -0.922580481  -0.015184314  
463000000  -0.919270813  0.064535685  
464000000  -0.909041166  0.143688366  
465000000  -0.892185152  0.221620187  
466000000  -0.868582726  0.297781378  
467000000  -0.838347197  0.371561527  
468000000  -0.802132130  0.442392647  
469000000  -0.759841740  0.509847879  
470000000  -0.711925268  0.573411465  
471000000  -0.658798397  0.632975757  
472000000  -0.600578725  0.687414348  
473000000  -0.537848115  0.736952245  
474000000  -0.471152276  0.780609965  
475000000  -0.400737137  0.818640053  
476000000  -0.327465266  0.850466013  
477000000  -0.251431316  0.875375152  
478000000  -0.173115417  0.893986344  
479000000  -0.094020925  0.905832648  
480000000  -0.013564914  0.910782516  
481000000  0.067273661  0.908045173  
482000000  0.147646159  0.898722768  
483000000  0.227020681  0.881960213  
484000000  0.304738730  0.858291149  
485000000  0.380234092  0.827742875  
486000000  0.452743053  0.790478647  
487000000  0.521617115  0.747094035  
488000000  0.586286664  0.697655499  
489000000  0.646533012  0.642880917  
490000000  0.701846659  0.583081663  
491000000  0.751786351  0.518389225  
492000000  0.795790672  0.449579269  
493000000  0.833848059  0.377338052  
494000000  0.865246296  0.301972985  
495000000  0.890074909  0.223846704  
496000000  0.907753944  0.143857747  
497000000  0.918294609  0.062832542  
498000000  0.921525180  -0.019041384  
499000000  0.917602181  -0.100731090  
500000000  0.906238139  -0.181860030  
