!Trace Data File
!Measurement: Smith Chart
!Data Points: 4000
#Freq/Hz  Real  Image
1000000  -1.122403026  0.205629021  
2000000  -1.100878716  0.291380972  
3000000  -1.067490220  0.378303409  
4000000  -1.026938319  0.467683822  
5000000  -0.978695691  0.554009199  
6000000  -0.923352420  0.639317214  
7000000  -0.860705912  0.717728317  
8000000  -0.791542649  0.791098952  
9000000  -0.715878546  0.857550383  
10000000  -0.635533929  0.916699171  
11000000  -0.550006092  0.968473077  
12000000  -0.460808009  1.012368202  
13000000  -0.368591517  1.047786593  
14000000  -0.273936182  1.075052500  
15000000  -0.177768961  1.093617320  
16000000  -0.081325293  1.104008317  
17000000  0.015595465  1.105606675  
18000000  0.111737266  1.099282026  
19000000  0.206664085  1.084577918  
20000000  0.299463749  1.062116265  
21000000  0.389616489  1.031925082  
22000000  0.476774067  0.994281173  
23000000  0.559850931  0.949462473  
24000000  0.638636112  0.898310602  
25000000  0.712402642  0.840910017  
26000000  0.781420827  0.777831733  
27000000  0.844607055  0.709120333  
28000000  0.901637375  0.635546148  
29000000  0.952575624  0.557524085  
30000000  0.996672213  0.475459278  
31000000  1.033907413  0.390146315  
32000000  1.063973427  0.302022904  
33000000  1.086269021  0.211544901  
34000000  1.101093650  0.119587906  
35000000  1.107990742  0.026629712  
36000000  1.107127547  -0.066813208  
37000000  1.098368287  -0.159887195  
38000000  1.081773043  -0.252086371  
39000000  1.057417750  -0.342838377  
40000000  1.025312424  -0.431364626  
41000000  0.985920191  -0.516904473  
42000000  0.939428985  -0.599065721  
43000000  0.885868907  -0.677071750  
44000000  0.825938642  -0.750301957  
45000000  0.759600043  -0.818679094  
46000000  0.687446833  -0.881253541  
47000000  0.610223293  -0.937675238  
48000000  0.527465165  -0.987438440  
49000000  0.440597087  -1.029992461  
50000000  0.350019366  -1.064756513  
51000000  0.256133080  -1.091768146  
52000000  0.159699678  -1.110629439  
53000000  0.061524857  -1.120545149  
54000000  -0.037656184  -1.121944070  
55000000  -0.136852220  -1.114264011  
56000000  -0.235873863  -1.097405553  
57000000  -0.332982957  -1.071845174  
58000000  -0.427700996  -1.037188053  
59000000  -0.519167066  -0.993882000  
60000000  -0.606277168  -0.942130625  
61000000  -0.688337088  -0.882368267  
62000000  -0.764451623  -0.815301895  
63000000  -0.834307373  -0.741736472  
64000000  -0.896747768  -0.661875308  
65000000  -0.951513946  -0.576824844  
66000000  -0.998367667  -0.487462848  
67000000  -1.036617279  -0.394025654  
68000000  -1.066197395  -0.297495127  
69000000  -1.086831212  -0.198766291  
70000000  -1.098313093  -0.098603733  
71000000  -1.100700378  0.001441819  
72000000  -1.093765378  0.101214282  
73000000  -1.078148603  0.200028181  
74000000  -1.052952409  0.297186762  
75000000  -1.019828081  0.391523421  
76000000  -0.977818429  0.482146263  
77000000  -0.928069651  0.568293810  
78000000  -0.870706022  0.649078846  
79000000  -0.806617260  0.724379539  
80000000  -0.736501634  0.792881131  
81000000  -0.660748780  0.854668558  
82000000  -0.580274820  0.908983350  
83000000  -0.495855570  0.955804408  
84000000  -0.408055395  0.995042205  
85000000  -0.317594230  1.026268840  
86000000  -0.225417688  1.049078465  
87000000  -0.132077619  1.063884377  
88000000  -0.038200907  1.070799708  
89000000  0.055423845  1.069356799  
90000000  0.148331702  1.060438156  
91000000  0.239702255  1.043279409  
92000000  0.329044491  1.018683195  
93000000  0.415675133  0.986951232  
94000000  0.499062538  0.947981894  
95000000  0.578796506  0.902631104  
96000000  0.654684961  0.850341082  
97000000  0.725593209  0.791778862  
98000000  0.791204751  0.727936685  
99000000  0.851137102  0.658706903  
100000000  0.905123174  0.584697366  
101000000  0.953406394  0.506073654  
102000000  0.994944334  0.423006654  
103000000  1.029247165  0.336652249  
104000000  1.055841327  0.247749299  
105000000  1.074931383  0.156992465  
106000000  1.086081386  0.064827584  
107000000  1.089510918  -0.027765855  
108000000  1.085137606  -0.120553382  
109000000  1.072686553  -0.213000014  
110000000  1.052342415  -0.304199517  
111000000  1.024418354  -0.393491536  
112000000  0.988676488  -0.480138093  
113000000  0.945761144  -0.563465714  
114000000  0.895560443  -0.643045545  
115000000  0.838883519  -0.718344092  
116000000  0.775370717  -0.788586438  
117000000  0.705773771  -0.853273213  
118000000  0.630383790  -0.912100732  
119000000  0.550296843  -0.964045346  
120000000  0.465572864  -1.009094238  
121000000  0.376741111  -1.046260357  
122000000  0.285135925  -1.075742841  
123000000  0.190274522  -1.097097874  
124000000  0.093878716  -1.110133290  
125000000  -0.003612965  -1.114517689  
126000000  -0.101190947  -1.109392166  
127000000  -0.198171064  -1.095865011  
128000000  -0.293816864  -1.073473692  
129000000  -0.386959523  -1.042682528  
130000000  -0.476668835  -1.003503084  
131000000  -0.562776387  -0.956419349  
132000000  -0.644117475  -0.901541173  
133000000  -0.720400691  -0.839571953  
134000000  -0.790793061  -0.770604551  
135000000  -0.854757965  -0.695428371  
136000000  -0.911577702  -0.614964366  
137000000  -0.960495591  -0.529785693  
138000000  -1.001373768  -0.440936714  
139000000  -1.034141421  -0.349059641  
140000000  -1.058265448  -0.255035639  
141000000  -1.074214458  -0.159634918  
142000000  -1.081415653  -0.062828146  
143000000  -1.080033064  0.034577150  
144000000  -1.069692492  0.131614938  
145000000  -1.050717115  0.227573127  
146000000  -1.022960305  0.321146071  
147000000  -0.986979187  0.411815047  
148000000  -0.943031549  0.498654366  
149000000  -0.891615391  0.580939889  
150000000  -0.833093464  0.657825291  
151000000  -0.768157959  0.729110718  
152000000  -0.697711647  0.793803751  
153000000  -0.621891856  0.852086663  
154000000  -0.541646779  0.903074920  
155000000  -0.457579345  0.946533024  
156000000  -0.370278448  0.982433021  
157000000  -0.280627608  1.010541916  
158000000  -0.189288065  1.030796647  
159000000  -0.096800506  1.042531967  
160000000  -0.004073043  1.046970487  
161000000  0.088666685  1.042828918  
162000000  0.180434331  1.031047583  
163000000  0.270944238  1.011257172  
164000000  0.358736545  0.983990610  
165000000  0.443708509  0.949320316  
166000000  0.525843978  0.907468140  
167000000  0.603170693  0.859134436  
168000000  0.676823616  0.804276407  
169000000  0.745267630  0.743634462  
170000000  0.808345258  0.677319109  
171000000  0.865883470  0.605558395  
172000000  0.917047560  0.528702676  
173000000  0.961483240  0.447800845  
174000000  0.998861313  0.363285810  
175000000  1.028676867  0.276052266  
176000000  1.050769687  0.187044799  
177000000  1.065350890  0.096613757  
178000000  1.072112679  0.005059847  
179000000  1.071071982  -0.086501621  
180000000  1.062261343  -0.177574515  
181000000  1.045989513  -0.267490208  
182000000  1.021996379  -0.355575681  
183000000  0.990611672  -0.441319019  
184000000  0.952235818  -0.524143994  
185000000  0.906950653  -0.603687942  
186000000  0.854905605  -0.679263592  
187000000  0.796271265  -0.750056803  
188000000  0.732018113  -0.815596581  
189000000  0.662017465  -0.875769138  
190000000  0.587498724  -0.929599226  
191000000  0.507932127  -0.976833642  
192000000  0.424819410  -1.017171025  
193000000  0.338581622  -1.050068021  
194000000  0.249656022  -1.075444579  
195000000  0.158554405  -1.092931628  
196000000  0.066419773  -1.102781057  
197000000  -0.026212199  -1.104384303  
198000000  -0.119098045  -1.097700596  
199000000  -0.210795507  -1.083039761  
200000000  -0.300859421  -1.060433984  
201000000  -0.389245212  -1.030288935  
202000000  -0.473927945  -0.991589844  
203000000  -0.554950893  -0.946591020  
204000000  -0.631487846  -0.894722521  
205000000  -0.703560472  -0.836790860  
206000000  -0.770133495  -0.772529423  
207000000  -0.830803752  -0.702982903  
208000000  -0.885522664  -0.628864110  
209000000  -0.933303595  -0.550523102  
210000000  -0.974438488  -0.468525082  
211000000  -1.008281708  -0.383320719  
212000000  -1.035005808  -0.294855654  
213000000  -1.053782701  -0.203996480  
214000000  -1.064483047  -0.111474656  
215000000  -1.067087889  -0.018074784  
216000000  -1.061301589  0.075418994  
217000000  -1.047382593  0.167969510  
218000000  -1.025258183  0.258964211  
219000000  -0.995430708  0.347512394  
220000000  -0.957971513  0.433193058  
221000000  -0.913037717  0.514799774  
222000000  -0.861425757  0.592342973  
223000000  -0.803270638  0.664948702  
224000000  -0.739218295  0.732158065  
225000000  -0.669529557  0.793356121  
226000000  -0.594864845  0.848550558  
227000000  -0.515595496  0.896709561  
228000000  -0.432534397  0.937857687  
229000000  -0.346103936  0.971205831  
230000000  -0.257155687  0.997278690  
231000000  -0.166282445  1.015323877  
232000000  -0.074594125  1.025297999  
233000000  0.018032495  1.027244210  
234000000  0.110485740  1.021172762  
235000000  0.202386469  1.007190943  
236000000  0.292638600  0.984973669  
237000000  0.380628049  0.955064774  
238000000  0.466334283  0.917654395  
239000000  0.548132002  0.871842861  
240000000  0.626233459  0.819327831  
241000000  0.699058712  0.759306729  
242000000  0.766178966  0.693233430  
243000000  0.827279687  0.621320188  
244000000  0.881784081  0.544274032  
245000000  0.929076135  0.463083386  
246000000  0.969088376  0.378260881  
247000000  1.001177192  0.290044785  
248000000  1.025342703  0.199381471  
249000000  1.041121840  0.106892347  
250000000  1.048682451  0.013599620  
251000000  1.047975302  -0.080013894  
252000000  1.039177895  -0.172966138  
253000000  1.022374272  -0.264444917  
254000000  0.997535706  -0.354164660  
255000000  0.964906633  -0.441246748  
256000000  0.924888551  -0.525247753  
257000000  0.877749205  -0.605179250  
258000000  0.823462069  -0.680619657  
259000000  0.762815118  -0.751048625  
260000000  0.695714891  -0.815848708  
261000000  0.623500407  -0.874295175  
262000000  0.546224058  -0.926232517  
263000000  0.464564443  -0.971109390  
264000000  0.379277259  -1.008446336  
265000000  0.290747017  -1.037858844  
266000000  0.199900851  -1.059149265  
267000000  0.107711583  -1.072286248  
268000000  0.015230358  -1.076951504  
269000000  -0.077503279  -1.073273182  
270000000  -0.168966368  -1.061619401  
271000000  -0.258027524  -1.042654395  
272000000  -0.346343845  -1.015372992  
273000000  -0.430935770  -0.980911553  
274000000  -0.512199163  -0.939542115  
275000000  -0.589507282  -0.891519070  
276000000  -0.661731124  -0.837084115  
277000000  -0.729089856  -0.776758730  
278000000  -0.791080952  -0.711398959  
279000000  -0.846905291  -0.641363502  
280000000  -0.896665335  -0.566719353  
281000000  -0.940063059  -0.488138527  
282000000  -0.976657450  -0.406115264  
283000000  -1.005424619  -0.321009517  
284000000  -1.026672840  -0.233256534  
285000000  -1.040101647  -0.144149020  
286000000  -1.045727253  -0.054033555  
287000000  -1.043783069  0.036052369  
288000000  -1.033878922  0.125546545  
289000000  -1.016340017  0.213844225  
290000000  -0.991293848  0.300146639  
291000000  -0.958955407  0.383687526  
292000000  -0.919742644  0.464148670  
293000000  -0.873610854  0.540765345  
294000000  -0.821315885  0.613344729  
295000000  -0.762867987  0.680700421  
296000000  -0.698909044  0.742934465  
297000000  -0.629628599  0.799439013  
298000000  -0.555832684  0.850054145  
299000000  -0.478000313  0.893777370  
300000000  -0.396584928  0.930815935  
301000000  -0.312089562  0.960926831  
302000000  -0.224833205  0.983847260  
303000000  -0.136030197  0.999017835  
304000000  -0.045729842  1.006751657  
305000000  0.045168262  1.006405234  
306000000  0.136218265  0.997697711  
307000000  0.226600483  0.981303573  
308000000  0.315714836  0.956515133  
309000000  0.402339846  0.923413515  
310000000  0.486191571  0.882643580  
311000000  0.565990269  0.834208310  
312000000  0.640878916  0.778398812  
313000000  0.711127579  0.716238141  
314000000  0.775137246  0.647892714  
315000000  0.832967281  0.574034333  
316000000  0.883894384  0.495374620  
317000000  0.927604914  0.411999047  
318000000  0.963432491  0.324911743  
319000000  0.991216242  0.234881759  
320000000  1.010690451  0.142553434  
321000000  1.021597505  0.048670214  
322000000  1.023902297  -0.045890450  
323000000  1.017765403  -0.140347600  
324000000  1.002976060  -0.233713657  
325000000  0.979505002  -0.325495452  
326000000  0.947641373  -0.414809912  
327000000  0.907521427  -0.500929236  
328000000  0.859618604  -0.582860887  
329000000  0.804021180  -0.660110891  
330000000  0.741224349  -0.731831729  
331000000  0.672235429  -0.796725392  
332000000  0.597662091  -0.855243146  
333000000  0.517794967  -0.906299949  
334000000  0.433731943  -0.949098945  
335000000  0.346494526  -0.984403074  
336000000  0.256684035  -1.011073947  
337000000  0.165111408  -1.029000163  
338000000  0.072767802  -1.038923860  
339000000  -0.019250352  -1.040428638  
340000000  -0.110906832  -1.033537626  
341000000  -0.201326162  -1.018799663  
342000000  -0.289498776  -0.996146500  
343000000  -0.375305206  -0.965863943  
344000000  -0.457469255  -0.928530991  
345000000  -0.535740376  -0.884246767  
346000000  -0.609670937  -0.833508849  
347000000  -0.678154528  -0.776883125  
348000000  -0.741756201  -0.714673519  
349000000  -0.799633443  -0.647522867  
350000000  -0.851418018  -0.575844288  
351000000  -0.896474838  -0.500140131  
352000000  -0.934984505  -0.420834929  
353000000  -0.966152191  -0.338430911  
354000000  -0.990056455  -0.253686905  
355000000  -1.006176353  -0.167295441  
356000000  -1.014805913  -0.079963058  
357000000  -1.015692830  0.007698701  
358000000  -1.009247899  0.095081419  
359000000  -0.995134950  0.181279168  
360000000  -0.973730266  0.265836805  
361000000  -0.945408285  0.348087966  
362000000  -0.910141230  0.427544326  
363000000  -0.868186355  0.503665507  
364000000  -0.820097804  0.575823903  
365000000  -0.765977681  0.643552363  
366000000  -0.706257582  0.706332862  
367000000  -0.641466081  0.763952792  
368000000  -0.571957052  0.815836489  
369000000  -0.498016477  0.862047017  
370000000  -0.420211673  0.901577830  
371000000  -0.339020550  0.934518993  
372000000  -0.255117506  0.960262597  
373000000  -0.168881983  0.978681564  
374000000  -0.081007287  0.989809811  
375000000  0.007893828  0.992644966  
376000000  0.097077623  0.987916827  
377000000  0.186171904  0.975026548  
378000000  0.273995191  0.953892708  
379000000  0.359426767  0.925106227  
380000000  0.442250133  0.888350129  
381000000  0.521444499  0.844399214  
382000000  0.596417725  0.793316722  
383000000  0.666769087  0.735744655  
384000000  0.731980562  0.672184110  
385000000  0.791063190  0.602763295  
386000000  0.843783855  0.528346896  
387000000  0.889622152  0.449103117  
388000000  0.928226709  0.365983158  
389000000  0.959144413  0.279585153  
390000000  0.982006609  0.190755039  
391000000  0.996818602  0.099945687  
392000000  1.003389120  0.008184649  
393000000  1.001525640  -0.083770931  
394000000  0.991330385  -0.175478280  
395000000  0.972961903  -0.265885949  
396000000  0.946092904  -0.354386598  
397000000  0.910960376  -0.439839303  
398000000  0.867936313  -0.521841705  
399000000  0.817627788  -0.599621356  
400000000  0.760425627  -0.671986222  
401000000  0.696172893  -0.738968670  
402000000  0.626435637  -0.799447834  
403000000  0.551251709  -0.853022218  
404000000  0.471755147  -0.899346113  
405000000  0.388252139  -0.938017070  
406000000  0.302557081  -0.968886197  
407000000  0.214160487  -0.991518915  
408000000  0.124179468  -1.006025910  
409000000  0.033602752  -1.012354016  
410000000  -0.056948408  -1.010502458  
411000000  -0.146906197  -1.000373483  
412000000  -0.235319287  -0.982341290  
413000000  -0.321085244  -0.956245601  
414000000  -0.403851300  -0.922967434  
415000000  -0.483200848  -0.882394254  
416000000  -0.558496833  -0.835172534  
417000000  -0.628641486  -0.781861365  
418000000  -0.694034576  -0.722541809  
419000000  -0.753756881  -0.658235967  
420000000  -0.807824731  -0.588963211  
421000000  -0.855114698  -0.515337467  
422000000  -0.895666361  -0.438140899  
423000000  -0.929200888  -0.357655019  
424000000  -0.955320716  -0.274602771  
425000000  -0.973522365  -0.189906597  
426000000  -0.984241784  -0.103800245  
427000000  -0.987138689  -0.017464476  
428000000  -0.982512116  0.068662792  
429000000  -0.970279217  0.153686881  
430000000  -0.950921297  0.237232506  
431000000  -0.924597144  0.318490416  
432000000  -0.891353250  0.396988064  
433000000  -0.851640761  0.471988350  
434000000  -0.805780411  0.543363035  
435000000  -0.754056573  0.610515893  
436000000  -0.696975946  0.672752440  
437000000  -0.634593546  0.730166316  
438000000  -0.567685068  0.781901598  
439000000  -0.496689171  0.827854037  
440000000  -0.421760082  0.867594957  
441000000  -0.343488485  0.900948644  
442000000  -0.262622029  0.927479804  
443000000  -0.179019332  0.946765363  
444000000  -0.094412528  0.958791852  
445000000  -0.008788740  0.963177443  
446000000  0.077230595  0.960411966  
447000000  0.162646100  0.949930012  
448000000  0.246933013  0.931843042  
449000000  0.329514831  0.906449080  
450000000  0.409372717  0.873824537  
451000000  0.486068934  0.834273815  
452000000  0.559262633  0.788182318  
453000000  0.628203511  0.735933781  
454000000  0.692413151  0.677785754  
455000000  0.751432121  0.614315927  
456000000  0.805033505  0.545804620  
457000000  0.852660477  0.472477436  
458000000  0.893589735  0.395189345  
459000000  0.927556872  0.314528972  
460000000  0.954190791  0.230969697  
461000000  0.973655343  0.145257413  
462000000  0.985284805  0.058069788  
463000000  0.988995373  -0.030026497  
464000000  0.984861970  -0.118204713  
465000000  0.973215342  -0.205757961  
466000000  0.953669965  -0.292126536  
467000000  0.926359177  -0.376310050  
468000000  0.891440153  -0.457858175  
469000000  0.849602699  -0.535818398  
470000000  0.800801456  -0.609454334  
471000000  0.745497346  -0.678449750  
472000000  0.684682488  -0.741999745  
473000000  0.618354261  -0.799853742  
474000000  0.547136009  -0.851375461  
475000000  0.472182155  -0.896451592  
476000000  0.393404573  -0.934509635  
477000000  0.311750293  -0.965608537  
478000000  0.227798626  -0.989119232  
479000000  0.141637221  -1.005319595  
480000000  0.054770466  -1.014082313  
481000000  -0.032449987  -1.014755964  
482000000  -0.119474888  -1.007899523  
483000000  -0.204590440  -0.993440330  
484000000  -0.288376987  -0.971386790  
485000000  -0.370483458  -0.942544639  
486000000  -0.449086308  -0.907059252  
487000000  -0.524305403  -0.864261746  
488000000  -0.595911801  -0.815797269  
489000000  -0.663057208  -0.761482537  
490000000  -0.725207984  -0.701116443  
491000000  -0.781863809  -0.635888696  
492000000  -0.832556844  -0.565760911  
493000000  -0.876651525  -0.491213083  
494000000  -0.913790524  -0.413517505  
495000000  -0.943633616  -0.332643539  
496000000  -0.966216147  -0.249903008  
497000000  -0.981311738  -0.165536553  
498000000  -0.989204764  -0.080449514  
499000000  -0.989622235  0.005221740  
500000000  -0.983042300  0.090319864  
